00:00:00.000	-0.085	-0.115
00:00:00.002	-0.080	-0.115
00:00:00.004	-0.070	-0.120
00:00:00.006	-0.075	-0.120
00:00:00.008	-0.095	-0.120
00:00:00.010	-0.090	-0.120
00:00:00.012	-0.100	-0.120
00:00:00.014	-0.100	-0.115
00:00:00.016	-0.100	-0.115
00:00:00.018	-0.085	-0.115
00:00:00.020	-0.060	-0.110
00:00:00.022	-0.045	-0.110
00:00:00.024	-0.055	-0.110
00:00:00.026	-0.060	-0.110
00:00:00.028	-0.070	-0.105
00:00:00.030	-0.080	-0.105
00:00:00.032	-0.085	-0.105
00:00:00.034	-0.080	-0.105
00:00:00.036	-0.070	-0.100
00:00:00.038	-0.040	-0.100
00:00:00.040	-0.050	-0.100
00:00:00.042	-0.045	-0.100
00:00:00.044	-0.040	-0.100
00:00:00.046	-0.040	-0.100
00:00:00.048	-0.055	-0.100
00:00:00.050	-0.060	-0.100
00:00:00.052	-0.055	-0.100
00:00:00.054	-0.055	-0.095
00:00:00.056	-0.055	-0.095
00:00:00.058	-0.045	-0.095
00:00:00.060	-0.040	-0.095
00:00:00.062	-0.045	-0.090
00:00:00.064	-0.040	-0.090
00:00:00.066	-0.030	-0.090
00:00:00.068	-0.035	-0.090
00:00:00.070	-0.045	-0.085
00:00:00.072	-0.055	-0.085
00:00:00.074	-0.055	-0.085
00:00:00.076	-0.050	-0.085
00:00:00.078	-0.020	-0.085
00:00:00.080	-0.015	-0.080
00:00:00.082	-0.010	-0.080
00:00:00.084	0.005	-0.075
00:00:00.086	0.000	-0.070
00:00:00.088	-0.005	-0.070
00:00:00.090	-0.025	-0.065
00:00:00.092	-0.035	-0.065
00:00:00.094	-0.030	-0.060
00:00:00.096	-0.030	-0.060
00:00:00.098	-0.015	-0.060
00:00:00.100	-0.005	-0.060
00:00:00.102	0.000	-0.065
00:00:00.104	0.010	-0.065
00:00:00.106	0.020	-0.060
00:00:00.108	0.000	-0.060
00:00:00.110	-0.005	-0.055
00:00:00.112	0.005	-0.050
00:00:00.114	0.005	-0.050
00:00:00.116	0.010	-0.045
00:00:00.118	0.025	-0.040
00:00:00.120	0.040	-0.035
00:00:00.122	0.055	-0.030
00:00:00.124	0.060	-0.025
00:00:00.126	0.045	-0.020
00:00:00.128	0.040	-0.010
00:00:00.130	0.045	-0.005
00:00:00.132	0.040	0.005
00:00:00.134	0.040	0.010
00:00:00.136	0.070	0.020
00:00:00.138	0.075	0.025
00:00:00.140	0.090	0.025
00:00:00.142	0.105	0.030
00:00:00.144	0.105	0.030
00:00:00.146	0.115	0.030
00:00:00.148	0.105	0.035
00:00:00.150	0.100	0.035
00:00:00.152	0.100	0.040
00:00:00.154	0.095	0.045
00:00:00.156	0.125	0.055
00:00:00.158	0.155	0.065
00:00:00.160	0.160	0.075
00:00:00.162	0.160	0.085
00:00:00.164	0.175	0.095
00:00:00.166	0.175	0.100
00:00:00.168	0.155	0.105
00:00:00.170	0.160	0.110
00:00:00.172	0.150	0.115
00:00:00.174	0.150	0.120
00:00:00.176	0.160	0.125
00:00:00.178	0.180	0.125
00:00:00.180	0.190	0.125
00:00:00.182	0.190	0.125
00:00:00.184	0.200	0.125
00:00:00.186	0.190	0.120
00:00:00.188	0.180	0.120
00:00:00.190	0.175	0.115
00:00:00.192	0.165	0.110
00:00:00.194	0.160	0.105
00:00:00.196	0.165	0.105
00:00:00.198	0.155	0.100
00:00:00.200	0.165	0.100
00:00:00.202	0.165	0.100
00:00:00.204	0.170	0.100
00:00:00.206	0.145	0.095
00:00:00.208	0.135	0.090
00:00:00.210	0.110	0.085
00:00:00.212	0.090	0.075
00:00:00.214	0.070	0.065
00:00:00.216	0.075	0.050
00:00:00.218	0.085	0.040
00:00:00.220	0.085	0.025
00:00:00.222	0.070	0.015
00:00:00.224	0.070	0.010
00:00:00.226	0.050	0.000
00:00:00.228	0.040	-0.005
00:00:00.230	0.025	-0.010
00:00:00.232	0.005	-0.015
00:00:00.234	-0.005	-0.020
00:00:00.236	0.000	-0.025
00:00:00.238	0.000	-0.035
00:00:00.240	0.005	-0.045
00:00:00.242	0.010	-0.055
00:00:00.244	0.000	-0.060
00:00:00.246	0.010	-0.065
00:00:00.248	0.015	-0.065
00:00:00.250	0.030	-0.060
00:00:00.252	0.035	-0.050
00:00:00.254	0.045	-0.035
00:00:00.256	0.065	-0.015
00:00:00.258	0.085	0.000
00:00:00.260	0.090	0.015
00:00:00.262	0.120	0.025
00:00:00.264	0.115	0.030
00:00:00.266	0.090	0.035
00:00:00.268	0.085	0.035
00:00:00.270	0.070	0.030
00:00:00.272	0.080	0.025
00:00:00.274	0.080	0.025
00:00:00.276	0.090	0.025
00:00:00.278	0.095	0.025
00:00:00.280	0.110	0.030
00:00:00.282	0.115	0.030
00:00:00.284	0.130	0.035
00:00:00.286	0.115	0.040
00:00:00.288	0.100	0.045
00:00:00.290	0.095	0.050
00:00:00.292	0.095	0.050
00:00:00.294	0.095	0.050
00:00:00.296	0.100	0.050
00:00:00.298	0.110	0.055
00:00:00.300	0.120	0.055
00:00:00.302	0.125	0.060
00:00:00.304	0.140	0.060
00:00:00.306	0.135	0.065
00:00:00.308	0.115	0.065
00:00:00.310	0.115	0.070
00:00:00.312	0.115	0.070
00:00:00.314	0.115	0.070
00:00:00.316	0.125	0.070
00:00:00.318	0.130	0.070
00:00:00.320	0.125	0.065
00:00:00.322	0.140	0.065
00:00:00.324	0.140	0.065
00:00:00.326	0.140	0.060
00:00:00.328	0.130	0.060
00:00:00.330	0.105	0.060
00:00:00.332	0.100	0.065
00:00:00.334	0.100	0.065
00:00:00.336	0.130	0.070
00:00:00.338	0.140	0.070
00:00:00.340	0.135	0.070
00:00:00.342	0.150	0.075
00:00:00.344	0.145	0.075
00:00:00.346	0.130	0.075
00:00:00.348	0.125	0.075
00:00:00.350	0.125	0.070
00:00:00.352	0.115	0.070
00:00:00.354	0.120	0.070
00:00:00.356	0.125	0.070
00:00:00.358	0.140	0.065
00:00:00.360	0.140	0.065
00:00:00.362	0.150	0.065
00:00:00.364	0.145	0.065
00:00:00.366	0.140	0.065
00:00:00.368	0.135	0.065
00:00:00.370	0.140	0.060
00:00:00.372	0.125	0.060
00:00:00.374	0.125	0.060
00:00:00.376	0.135	0.065
00:00:00.378	0.145	0.065
00:00:00.380	0.145	0.065
00:00:00.382	0.140	0.070
00:00:00.384	0.135	0.070
00:00:00.386	0.120	0.075
00:00:00.388	0.120	0.075
00:00:00.390	0.110	0.075
00:00:00.392	0.115	0.075
00:00:00.394	0.120	0.070
00:00:00.396	0.135	0.070
00:00:00.398	0.135	0.065
00:00:00.400	0.130	0.065
00:00:00.402	0.135	0.060
00:00:00.404	0.130	0.055
00:00:00.406	0.110	0.055
00:00:00.408	0.110	0.055
00:00:00.410	0.110	0.050
00:00:00.412	0.105	0.050
00:00:00.414	0.115	0.050
00:00:00.416	0.125	0.050
00:00:00.418	0.130	0.050
00:00:00.420	0.115	0.045
00:00:00.422	0.120	0.045
00:00:00.424	0.115	0.045
00:00:00.426	0.105	0.040
00:00:00.428	0.100	0.035
00:00:00.430	0.105	0.035
00:00:00.432	0.090	0.030
00:00:00.434	0.100	0.030
00:00:00.436	0.105	0.025
00:00:00.438	0.110	0.025
00:00:00.440	0.120	0.030
00:00:00.442	0.135	0.030
00:00:00.444	0.120	0.035
00:00:00.446	0.110	0.040
00:00:00.448	0.095	0.045
00:00:00.450	0.100	0.045
00:00:00.452	0.095	0.045
00:00:00.454	0.100	0.045
00:00:00.456	0.110	0.045
00:00:00.458	0.110	0.045
00:00:00.460	0.115	0.045
00:00:00.462	0.115	0.045
00:00:00.464	0.095	0.050
00:00:00.466	0.080	0.050
00:00:00.468	0.075	0.050
00:00:00.470	0.070	0.050
00:00:00.472	0.070	0.045
00:00:00.474	0.075	0.040
00:00:00.476	0.090	0.035
00:00:00.478	0.085	0.030
00:00:00.480	0.100	0.020
00:00:00.482	0.125	0.020
00:00:00.484	0.110	0.020
00:00:00.486	0.105	0.020
00:00:00.488	0.075	0.025
00:00:00.490	0.080	0.035
00:00:00.492	0.065	0.040
00:00:00.494	0.075	0.040
00:00:00.496	0.080	0.045
00:00:00.498	0.090	0.045
00:00:00.500	0.100	0.040
00:00:00.502	0.115	0.035
00:00:00.504	0.105	0.030
00:00:00.506	0.090	0.025
00:00:00.508	0.085	0.025
00:00:00.510	0.090	0.030
00:00:00.512	0.085	0.030
00:00:00.514	0.095	0.035
00:00:00.516	0.110	0.045
00:00:00.518	0.135	0.050
00:00:00.520	0.130	0.055
00:00:00.522	0.135	0.060
00:00:00.524	0.125	0.060
00:00:00.526	0.120	0.060
00:00:00.528	0.110	0.065
00:00:00.530	0.105	0.060
00:00:00.532	0.095	0.060
00:00:00.534	0.110	0.060
00:00:00.536	0.140	0.055
00:00:00.538	0.135	0.055
00:00:00.540	0.140	0.050
00:00:00.542	0.140	0.045
00:00:00.544	0.130	0.045
00:00:00.546	0.125	0.040
00:00:00.548	0.120	0.045
00:00:00.550	0.105	0.050
00:00:00.552	0.100	0.055
00:00:00.554	0.120	0.060
00:00:00.556	0.150	0.070
00:00:00.558	0.160	0.075
00:00:00.560	0.160	0.080
00:00:00.562	0.170	0.085
00:00:00.564	0.160	0.080
00:00:00.566	0.120	0.075
00:00:00.568	0.115	0.070
00:00:00.570	0.115	0.065
00:00:00.572	0.095	0.055
00:00:00.574	0.095	0.050
00:00:00.576	0.100	0.045
00:00:00.578	0.095	0.040
00:00:00.580	0.090	0.040
00:00:00.582	0.090	0.035
00:00:00.584	0.085	0.030
00:00:00.586	0.055	0.020
00:00:00.588	0.065	0.015
00:00:00.590	0.060	0.010
00:00:00.592	0.065	0.010
00:00:00.594	0.075	0.005
00:00:00.596	0.080	0.005
00:00:00.598	0.080	0.010
00:00:00.600	0.095	0.015
00:00:00.602	0.075	0.015
00:00:00.604	0.055	0.020
00:00:00.606	0.050	0.020
00:00:00.608	0.045	0.020
00:00:00.610	0.035	0.020
00:00:00.612	0.045	0.020
00:00:00.614	0.045	0.015
00:00:00.616	0.055	0.015
00:00:00.618	0.060	0.015
00:00:00.620	0.060	0.010
00:00:00.622	0.060	0.010
00:00:00.624	0.060	0.005
00:00:00.626	0.050	0.005
00:00:00.628	0.035	0.000
00:00:00.630	0.020	-0.005
00:00:00.632	0.025	-0.010
00:00:00.634	0.035	-0.010
00:00:00.636	0.045	-0.010
00:00:00.638	0.055	-0.010
00:00:00.640	0.060	-0.010
00:00:00.642	0.055	-0.010
00:00:00.644	0.035	-0.010
00:00:00.646	0.025	-0.010
00:00:00.648	0.030	-0.015
00:00:00.650	0.020	-0.015
00:00:00.652	0.030	-0.020
00:00:00.654	0.050	-0.025
00:00:00.656	0.030	-0.030
00:00:00.658	0.040	-0.030
00:00:00.660	0.050	-0.030
00:00:00.662	0.040	-0.030
00:00:00.664	0.025	-0.030
00:00:00.666	0.000	-0.025
00:00:00.668	-0.010	-0.025
00:00:00.670	-0.025	-0.030
00:00:00.672	-0.030	-0.035
00:00:00.674	-0.025	-0.040
00:00:00.676	-0.015	-0.045
00:00:00.678	-0.005	-0.045
00:00:00.680	0.030	-0.035
00:00:00.682	0.065	-0.015
00:00:00.684	0.110	0.025
00:00:00.686	0.160	0.075
00:00:00.688	0.200	0.140
00:00:00.690	0.255	0.220
00:00:00.692	0.335	0.305
00:00:00.694	0.425	0.390
00:00:00.696	0.530	0.470
00:00:00.698	0.645	0.535
00:00:00.700	0.720	0.590
00:00:00.702	0.735	0.620
00:00:00.704	0.685	0.625
00:00:00.706	0.630	0.600
00:00:00.708	0.570	0.555
00:00:00.710	0.485	0.485
00:00:00.712	0.410	0.395
00:00:00.714	0.335	0.295
00:00:00.716	0.230	0.190
00:00:00.718	0.100	0.090
00:00:00.720	0.010	0.000
00:00:00.722	-0.060	-0.070
00:00:00.724	-0.100	-0.120
00:00:00.726	-0.100	-0.145
00:00:00.728	-0.090	-0.150
00:00:00.730	-0.085	-0.140
00:00:00.732	-0.060	-0.115
00:00:00.734	-0.020	-0.090
00:00:00.736	0.010	-0.060
00:00:00.738	0.035	-0.040
00:00:00.740	0.040	-0.025
00:00:00.742	0.035	-0.015
00:00:00.744	0.015	-0.015
00:00:00.746	-0.005	-0.020
00:00:00.748	-0.020	-0.025
00:00:00.750	-0.025	-0.035
00:00:00.752	-0.010	-0.035
00:00:00.754	0.000	-0.040
00:00:00.756	0.005	-0.040
00:00:00.758	0.025	-0.040
00:00:00.760	0.025	-0.040
00:00:00.762	0.020	-0.035
00:00:00.764	0.000	-0.035
00:00:00.766	0.005	-0.035
00:00:00.768	-0.015	-0.040
00:00:00.770	-0.020	-0.040
00:00:00.772	-0.010	-0.040
00:00:00.774	-0.010	-0.045
00:00:00.776	0.000	-0.045
00:00:00.778	0.010	-0.045
00:00:00.780	0.000	-0.045
00:00:00.782	0.005	-0.045
00:00:00.784	0.005	-0.045
00:00:00.786	-0.005	-0.040
00:00:00.788	0.000	-0.040
00:00:00.790	-0.010	-0.035
00:00:00.792	0.000	-0.030
00:00:00.794	0.015	-0.030
00:00:00.796	0.020	-0.025
00:00:00.798	0.025	-0.025
00:00:00.800	0.040	-0.025
00:00:00.802	0.025	-0.025
00:00:00.804	0.010	-0.025
00:00:00.806	0.000	-0.025
00:00:00.808	-0.005	-0.025
00:00:00.810	-0.005	-0.025
00:00:00.812	0.005	-0.030
00:00:00.814	0.025	-0.030
00:00:00.816	0.025	-0.030
00:00:00.818	0.030	-0.030
00:00:00.820	0.025	-0.025
00:00:00.822	0.010	-0.025
00:00:00.824	0.020	-0.020
00:00:00.826	0.005	-0.020
00:00:00.828	0.010	-0.015
00:00:00.830	0.005	-0.010
00:00:00.832	0.015	-0.010
00:00:00.834	0.020	-0.010
00:00:00.836	0.035	-0.010
00:00:00.838	0.040	-0.010
00:00:00.840	0.050	-0.010
00:00:00.842	0.050	-0.010
00:00:00.844	0.045	-0.010
00:00:00.846	0.040	-0.010
00:00:00.848	0.025	-0.005
00:00:00.850	0.030	0.000
00:00:00.852	0.030	0.005
00:00:00.854	0.040	0.010
00:00:00.856	0.045	0.015
00:00:00.858	0.055	0.020
00:00:00.860	0.060	0.025
00:00:00.862	0.065	0.025
00:00:00.864	0.065	0.030
00:00:00.866	0.070	0.030
00:00:00.868	0.070	0.035
00:00:00.870	0.065	0.040
00:00:00.872	0.080	0.045
00:00:00.874	0.095	0.050
00:00:00.876	0.105	0.055
00:00:00.878	0.105	0.065
00:00:00.880	0.120	0.070
00:00:00.882	0.115	0.070
00:00:00.884	0.115	0.075
00:00:00.886	0.110	0.075
00:00:00.888	0.100	0.075
00:00:00.890	0.100	0.075
00:00:00.892	0.115	0.075
00:00:00.894	0.130	0.080
00:00:00.896	0.150	0.085
00:00:00.898	0.155	0.090
00:00:00.900	0.160	0.095
00:00:00.902	0.150	0.105
00:00:00.904	0.160	0.115
00:00:00.906	0.165	0.120
00:00:00.908	0.155	0.130
00:00:00.910	0.160	0.135
00:00:00.912	0.175	0.140
00:00:00.914	0.200	0.140
00:00:00.916	0.205	0.145
00:00:00.918	0.210	0.145
00:00:00.920	0.205	0.145
00:00:00.922	0.195	0.145
00:00:00.924	0.185	0.145
00:00:00.926	0.180	0.150
00:00:00.928	0.180	0.150
00:00:00.930	0.180	0.155
00:00:00.932	0.180	0.160
00:00:00.934	0.200	0.165
00:00:00.936	0.205	0.170
00:00:00.938	0.205	0.175
00:00:00.940	0.195	0.175
00:00:00.942	0.170	0.170
00:00:00.944	0.150	0.165
00:00:00.946	0.135	0.155
00:00:00.948	0.130	0.140
00:00:00.950	0.125	0.130
00:00:00.952	0.130	0.120
00:00:00.954	0.115	0.115
00:00:00.956	0.130	0.110
00:00:00.958	0.130	0.105
00:00:00.960	0.115	0.100
00:00:00.962	0.095	0.095
00:00:00.964	0.080	0.085
00:00:00.966	0.070	0.075
00:00:00.968	0.055	0.060
00:00:00.970	0.030	0.045
00:00:00.972	0.015	0.030
00:00:00.974	0.025	0.015
00:00:00.976	0.025	0.005
00:00:00.978	0.020	-0.005
00:00:00.980	0.010	-0.005
00:00:00.982	-0.005	-0.005
00:00:00.984	-0.020	-0.005
00:00:00.986	-0.025	-0.005
00:00:00.988	-0.035	-0.005
00:00:00.990	-0.030	-0.010
00:00:00.992	-0.010	-0.015
00:00:00.994	0.000	-0.025
00:00:00.996	-0.010	-0.035
00:00:00.998	-0.005	-0.040
00:00:01.000	-0.010	-0.045
00:00:01.002	-0.030	-0.050
00:00:01.004	-0.040	-0.050
00:00:01.006	-0.055	-0.050
00:00:01.008	-0.065	-0.045
00:00:01.010	-0.055	-0.050
00:00:01.012	-0.040	-0.050
00:00:01.014	-0.045	-0.055
00:00:01.016	-0.025	-0.060
00:00:01.018	-0.035	-0.070
00:00:01.020	-0.030	-0.075
00:00:01.022	-0.050	-0.075
00:00:01.024	-0.055	-0.080
00:00:01.026	-0.060	-0.080
00:00:01.028	-0.060	-0.075
00:00:01.030	-0.045	-0.070
00:00:01.032	-0.045	-0.065
00:00:01.034	-0.035	-0.060
00:00:01.036	-0.020	-0.060
00:00:01.038	-0.030	-0.055
00:00:01.040	-0.030	-0.055
00:00:01.042	-0.050	-0.055
00:00:01.044	-0.055	-0.055
00:00:01.046	-0.055	-0.055
00:00:01.048	-0.060	-0.055
00:00:01.050	-0.055	-0.055
00:00:01.052	-0.050	-0.055
00:00:01.054	-0.040	-0.055
00:00:01.056	-0.055	-0.060
00:00:01.058	-0.030	-0.060
00:00:01.060	-0.055	-0.065
00:00:01.062	-0.050	-0.065
00:00:01.064	-0.050	-0.065
00:00:01.066	-0.060	-0.065
00:00:01.068	-0.060	-0.060
00:00:01.070	-0.045	-0.060
00:00:01.072	-0.040	-0.055
00:00:01.074	-0.040	-0.055
00:00:01.076	-0.040	-0.055
00:00:01.078	-0.040	-0.050
00:00:01.080	-0.050	-0.055
00:00:01.082	-0.055	-0.055
00:00:01.084	-0.055	-0.055
00:00:01.086	-0.060	-0.060
00:00:01.088	-0.055	-0.060
00:00:01.090	-0.030	-0.060
00:00:01.092	-0.030	-0.060
00:00:01.094	-0.025	-0.060
00:00:01.096	-0.020	-0.060
00:00:01.098	-0.015	-0.065
00:00:01.100	-0.025	-0.065
00:00:01.102	-0.035	-0.065
00:00:01.104	-0.045	-0.070
00:00:01.106	-0.050	-0.070
00:00:01.108	-0.055	-0.070
00:00:01.110	-0.045	-0.070
00:00:01.112	-0.040	-0.065
00:00:01.114	-0.020	-0.065
00:00:01.116	-0.015	-0.060
00:00:01.118	-0.010	-0.055
00:00:01.120	-0.015	-0.055
00:00:01.122	-0.020	-0.050
00:00:01.124	-0.030	-0.055
00:00:01.126	-0.035	-0.055
00:00:01.128	-0.040	-0.055
00:00:01.130	-0.030	-0.060
00:00:01.132	-0.030	-0.060
00:00:01.134	-0.025	-0.060
00:00:01.136	-0.015	-0.060
00:00:01.138	-0.015	-0.055
00:00:01.140	-0.025	-0.055
00:00:01.142	-0.020	-0.050
00:00:01.144	-0.035	-0.045
00:00:01.146	-0.040	-0.040
00:00:01.148	-0.045	-0.040
00:00:01.150	-0.045	-0.035
00:00:01.152	-0.030	-0.035
00:00:01.154	-0.025	-0.035
00:00:01.156	-0.005	-0.035
00:00:01.158	-0.010	-0.035
00:00:01.160	-0.030	-0.035
00:00:01.162	-0.030	-0.035
00:00:01.164	-0.035	-0.035
00:00:01.166	-0.050	-0.035
00:00:01.168	-0.060	-0.030
00:00:01.170	-0.040	-0.030
00:00:01.172	-0.040	-0.030
00:00:01.174	-0.030	-0.035
00:00:01.176	-0.020	-0.035
00:00:01.178	-0.025	-0.035
00:00:01.180	-0.040	-0.040
00:00:01.182	-0.045	-0.045
00:00:01.184	-0.020	-0.045
00:00:01.186	-0.050	-0.050
00:00:01.188	-0.055	-0.050
00:00:01.190	-0.040	-0.050
00:00:01.192	-0.030	-0.050
00:00:01.194	-0.035	-0.050
00:00:01.196	-0.015	-0.050
00:00:01.198	-0.020	-0.050
00:00:01.200	-0.040	-0.050
00:00:01.202	-0.050	-0.050
00:00:01.204	-0.055	-0.055
00:00:01.206	-0.060	-0.055
00:00:01.208	-0.060	-0.060
00:00:01.210	-0.055	-0.060
00:00:01.212	-0.040	-0.065
00:00:01.214	-0.040	-0.065
00:00:01.216	-0.035	-0.065
00:00:01.218	-0.020	-0.060
00:00:01.220	-0.035	-0.060
00:00:01.222	-0.045	-0.060
00:00:01.224	-0.050	-0.060
00:00:01.226	-0.070	-0.060
00:00:01.228	-0.070	-0.060
00:00:01.230	-0.050	-0.060
00:00:01.232	-0.045	-0.060
00:00:01.234	-0.035	-0.060
00:00:01.236	-0.035	-0.060
00:00:01.238	-0.035	-0.060
00:00:01.240	-0.045	-0.060
00:00:01.242	-0.055	-0.055
00:00:01.244	-0.050	-0.050
00:00:01.246	-0.050	-0.050
00:00:01.248	-0.040	-0.045
00:00:01.250	-0.035	-0.045
00:00:01.252	-0.025	-0.040
00:00:01.254	-0.005	-0.040
00:00:01.256	-0.010	-0.040
00:00:01.258	-0.025	-0.035
00:00:01.260	-0.040	-0.035
00:00:01.262	-0.030	-0.030
00:00:01.264	-0.035	-0.030
00:00:01.266	-0.040	-0.025
00:00:01.268	-0.040	-0.025
00:00:01.270	-0.025	-0.020
00:00:01.272	-0.015	-0.020
00:00:01.274	-0.010	-0.020
00:00:01.276	0.015	-0.020
00:00:01.278	-0.005	-0.020
00:00:01.280	-0.005	-0.020
00:00:01.282	-0.015	-0.020
00:00:01.284	-0.020	-0.025
00:00:01.286	-0.025	-0.025
00:00:01.288	-0.025	-0.030
00:00:01.290	-0.010	-0.030
00:00:01.292	0.005	-0.035
00:00:01.294	0.015	-0.035
00:00:01.296	0.020	-0.035
00:00:01.298	0.015	-0.030
00:00:01.300	0.005	-0.030
00:00:01.302	0.005	-0.025
00:00:01.304	0.000	-0.015
00:00:01.306	0.000	-0.010
00:00:01.308	0.000	-0.005
00:00:01.310	0.000	0.000
00:00:01.312	0.005	0.000
00:00:01.314	0.020	0.000
00:00:01.316	0.030	0.000
00:00:01.318	0.020	-0.005
00:00:01.320	-0.010	-0.010
00:00:01.322	-0.025	-0.015
00:00:01.324	-0.035	-0.020
00:00:01.326	-0.055	-0.025
00:00:01.328	-0.050	-0.030
00:00:01.330	-0.045	-0.035
00:00:01.332	-0.040	-0.040
00:00:01.334	-0.045	-0.045
00:00:01.336	-0.025	-0.055
00:00:01.338	-0.035	-0.060
00:00:01.340	-0.060	-0.070
00:00:01.342	-0.060	-0.075
00:00:01.344	-0.070	-0.080
00:00:01.346	-0.080	-0.080
00:00:01.348	-0.065	-0.080
00:00:01.350	-0.055	-0.080
00:00:01.352	-0.050	-0.075
00:00:01.354	-0.050	-0.075
00:00:01.356	-0.035	-0.075
00:00:01.358	-0.055	-0.075
00:00:01.360	-0.055	-0.075
00:00:01.362	-0.060	-0.075
00:00:01.364	-0.065	-0.075
00:00:01.366	-0.065	-0.075
00:00:01.368	-0.060	-0.075
00:00:01.370	-0.065	-0.075
00:00:01.372	-0.065	-0.075
00:00:01.374	-0.065	-0.075
00:00:01.376	-0.065	-0.080
00:00:01.378	-0.065	-0.080
00:00:01.380	-0.080	-0.085
00:00:01.382	-0.085	-0.090
00:00:01.384	-0.080	-0.095
00:00:01.386	-0.100	-0.095
00:00:01.388	-0.090	-0.095
00:00:01.390	-0.080	-0.095
00:00:01.392	-0.060	-0.090
00:00:01.394	-0.045	-0.085
00:00:01.396	-0.045	-0.085
00:00:01.398	-0.055	-0.085
00:00:01.400	-0.060	-0.085
00:00:01.402	-0.085	-0.090
00:00:01.404	-0.085	-0.095
00:00:01.406	-0.100	-0.100
00:00:01.408	-0.100	-0.105
00:00:01.410	-0.080	-0.105
00:00:01.412	-0.075	-0.105
00:00:01.414	-0.070	-0.105
00:00:01.416	-0.075	-0.105
00:00:01.418	-0.095	-0.105
00:00:01.420	-0.105	-0.110
00:00:01.422	-0.115	-0.115
00:00:01.424	-0.140	-0.125
00:00:01.426	-0.155	-0.130
00:00:01.428	-0.135	-0.130
00:00:01.430	-0.105	-0.120
00:00:01.432	-0.045	-0.095
00:00:01.434	0.020	-0.055
00:00:01.436	0.075	-0.005
00:00:01.438	0.125	0.060
00:00:01.440	0.170	0.140
00:00:01.442	0.225	0.225
00:00:01.444	0.275	0.310
00:00:01.446	0.390	0.395
00:00:01.448	0.515	0.470
00:00:01.450	0.640	0.530
00:00:01.452	0.690	0.575
00:00:01.454	0.660	0.595
00:00:01.456	0.615	0.590
00:00:01.458	0.555	0.555
00:00:01.460	0.485	0.495
00:00:01.462	0.390	0.410
00:00:01.464	0.305	0.310
00:00:01.466	0.195	0.200
00:00:01.468	0.085	0.085
00:00:01.470	-0.030	-0.015
00:00:01.472	-0.115	-0.095
00:00:01.474	-0.155	-0.150
00:00:01.476	-0.145	-0.180
00:00:01.478	-0.125	-0.185
00:00:01.480	-0.115	-0.170
00:00:01.482	-0.110	-0.140
00:00:01.484	-0.085	-0.110
00:00:01.486	-0.050	-0.080
00:00:01.488	-0.055	-0.060
00:00:01.490	-0.030	-0.055
00:00:01.492	-0.035	-0.055
00:00:01.494	-0.045	-0.065
00:00:01.496	-0.040	-0.075
00:00:01.498	-0.040	-0.085
00:00:01.500	-0.065	-0.095
00:00:01.502	-0.070	-0.100
00:00:01.504	-0.080	-0.100
00:00:01.506	-0.075	-0.095
00:00:01.508	-0.070	-0.090
00:00:01.510	-0.060	-0.085
00:00:01.512	-0.050	-0.085
00:00:01.514	-0.030	-0.080
00:00:01.516	-0.045	-0.080
00:00:01.518	-0.045	-0.080
00:00:01.520	-0.055	-0.080
00:00:01.522	-0.060	-0.080
00:00:01.524	-0.055	-0.080
00:00:01.526	-0.060	-0.075
00:00:01.528	-0.040	-0.070
00:00:01.530	-0.035	-0.070
00:00:01.532	-0.025	-0.065
00:00:01.534	-0.010	-0.065
00:00:01.536	-0.025	-0.065
00:00:01.538	-0.045	-0.070
00:00:01.540	-0.050	-0.070
00:00:01.542	-0.055	-0.070
00:00:01.544	-0.050	-0.065
00:00:01.546	-0.055	-0.065
00:00:01.548	-0.030	-0.060
00:00:01.550	-0.025	-0.055
00:00:01.552	-0.020	-0.050
00:00:01.554	-0.010	-0.045
00:00:01.556	-0.010	-0.045
00:00:01.558	-0.020	-0.040
00:00:01.560	-0.030	-0.040
00:00:01.562	-0.025	-0.035
00:00:01.564	-0.020	-0.035
00:00:01.566	-0.015	-0.030
00:00:01.568	0.005	-0.025
00:00:01.570	0.020	-0.025
00:00:01.572	0.025	-0.020
00:00:01.574	0.025	-0.015
00:00:01.576	0.015	-0.015
00:00:01.578	0.005	-0.015
00:00:01.580	-0.010	-0.015
00:00:01.582	-0.010	-0.020
00:00:01.584	-0.010	-0.020
00:00:01.586	0.010	-0.020
00:00:01.588	0.015	-0.020
00:00:01.590	0.025	-0.020
00:00:01.592	0.045	-0.015
00:00:01.594	0.060	-0.010
00:00:01.596	0.065	-0.005
00:00:01.598	0.050	0.005
00:00:01.600	0.040	0.010
00:00:01.602	0.045	0.015
00:00:01.604	0.040	0.020
00:00:01.606	0.045	0.020
00:00:01.608	0.045	0.020
00:00:01.610	0.060	0.020
00:00:01.612	0.065	0.020
00:00:01.614	0.070	0.015
00:00:01.616	0.065	0.015
00:00:01.618	0.065	0.010
00:00:01.620	0.065	0.010
00:00:01.622	0.065	0.015
00:00:01.624	0.075	0.020
00:00:01.626	0.080	0.025
00:00:01.628	0.100	0.035
00:00:01.630	0.115	0.045
00:00:01.632	0.125	0.060
00:00:01.634	0.130	0.070
00:00:01.636	0.140	0.075
00:00:01.638	0.140	0.085
00:00:01.640	0.150	0.090
00:00:01.642	0.135	0.095
00:00:01.644	0.130	0.100
00:00:01.646	0.140	0.105
00:00:01.648	0.170	0.110
00:00:01.650	0.175	0.115
00:00:01.652	0.190	0.125
00:00:01.654	0.200	0.130
00:00:01.656	0.205	0.140
00:00:01.658	0.190	0.145
00:00:01.660	0.200	0.155
00:00:01.662	0.200	0.160
00:00:01.664	0.195	0.160
00:00:01.666	0.210	0.165
00:00:01.668	0.225	0.165
00:00:01.670	0.235	0.165
00:00:01.672	0.230	0.170
00:00:01.674	0.240	0.175
00:00:01.676	0.225	0.175
00:00:01.678	0.225	0.175
00:00:01.680	0.205	0.175
00:00:01.682	0.200	0.175
00:00:01.684	0.190	0.170
00:00:01.686	0.190	0.165
00:00:01.688	0.205	0.155
00:00:01.690	0.205	0.150
00:00:01.692	0.220	0.145
00:00:01.694	0.230	0.140
00:00:01.696	0.205	0.140
00:00:01.698	0.195	0.140
00:00:01.700	0.175	0.140
00:00:01.702	0.165	0.140
00:00:01.704	0.155	0.135
00:00:01.706	0.150	0.130
00:00:01.708	0.140	0.120
00:00:01.710	0.135	0.110
00:00:01.712	0.130	0.090
00:00:01.714	0.110	0.075
00:00:01.716	0.105	0.060
00:00:01.718	0.085	0.045
00:00:01.720	0.075	0.035
00:00:01.722	0.065	0.030
00:00:01.724	0.060	0.030
00:00:01.726	0.065	0.025
00:00:01.728	0.060	0.025
00:00:01.730	0.060	0.020
00:00:01.732	0.050	0.020
00:00:01.734	0.045	0.010
00:00:01.736	0.040	0.000
00:00:01.738	0.020	-0.010
00:00:01.740	0.010	-0.020
00:00:01.742	0.000	-0.030
00:00:01.744	0.000	-0.035
00:00:01.746	0.010	-0.040
00:00:01.748	0.015	-0.045
00:00:01.750	0.010	-0.045
00:00:01.752	0.020	-0.045
00:00:01.754	0.010	-0.045
00:00:01.756	0.000	-0.050
00:00:01.758	-0.020	-0.050
00:00:01.760	-0.020	-0.055
00:00:01.762	-0.040	-0.060
00:00:01.764	-0.035	-0.060
00:00:01.766	-0.025	-0.065
00:00:01.768	-0.015	-0.065
00:00:01.770	-0.005	-0.070
00:00:01.772	0.005	-0.070
00:00:01.774	-0.005	-0.065
00:00:01.776	-0.020	-0.065
00:00:01.778	-0.025	-0.060
00:00:01.780	-0.025	-0.060
00:00:01.782	-0.025	-0.060
00:00:01.784	-0.025	-0.055
00:00:01.786	-0.025	-0.055
00:00:01.788	-0.010	-0.060
00:00:01.790	0.005	-0.060
00:00:01.792	0.015	-0.060
00:00:01.794	0.010	-0.060
00:00:01.796	0.005	-0.060
00:00:01.798	-0.020	-0.060
00:00:01.800	-0.015	-0.065
00:00:01.802	-0.015	-0.065
00:00:01.804	-0.020	-0.065
00:00:01.806	-0.025	-0.065
00:00:01.808	-0.020	-0.065
00:00:01.810	-0.020	-0.070
00:00:01.812	0.000	-0.070
00:00:01.814	0.015	-0.070
00:00:01.816	-0.005	-0.075
00:00:01.818	-0.010	-0.075
00:00:01.820	-0.020	-0.080
00:00:01.822	-0.030	-0.085
00:00:01.824	-0.030	-0.090
00:00:01.826	-0.015	-0.090
00:00:01.828	0.000	-0.095
00:00:01.830	0.010	-0.095
00:00:01.832	0.015	-0.095
00:00:01.834	0.015	-0.090
00:00:01.836	-0.005	-0.085
00:00:01.838	-0.010	-0.080
00:00:01.840	-0.035	-0.075
00:00:01.842	-0.025	-0.070
00:00:01.844	-0.025	-0.065
00:00:01.846	-0.020	-0.065
00:00:01.848	0.005	-0.065
00:00:01.850	0.015	-0.065
00:00:01.852	0.020	-0.065
00:00:01.854	0.025	-0.070
00:00:01.856	0.000	-0.070
00:00:01.858	-0.010	-0.070
00:00:01.860	-0.025	-0.065
00:00:01.862	-0.035	-0.065
00:00:01.864	-0.020	-0.060
00:00:01.866	-0.010	-0.060
00:00:01.868	0.005	-0.055
00:00:01.870	0.005	-0.055
00:00:01.872	0.010	-0.060
00:00:01.874	0.015	-0.060
00:00:01.876	0.000	-0.065
00:00:01.878	-0.005	-0.065
00:00:01.880	-0.020	-0.070
00:00:01.882	-0.025	-0.070
00:00:01.884	-0.025	-0.075
00:00:01.886	-0.015	-0.075
00:00:01.888	0.000	-0.075
00:00:01.890	0.005	-0.075
00:00:01.892	0.015	-0.075
00:00:01.894	0.020	-0.075
00:00:01.896	0.000	-0.075
00:00:01.898	-0.015	-0.075
00:00:01.900	-0.020	-0.075
00:00:01.902	-0.030	-0.080
00:00:01.904	-0.025	-0.080
00:00:01.906	-0.005	-0.080
00:00:01.908	-0.005	-0.080
00:00:01.910	0.000	-0.080
00:00:01.912	0.010	-0.080
00:00:01.914	0.015	-0.080
00:00:01.916	0.005	-0.080
00:00:01.918	-0.010	-0.080
00:00:01.920	-0.015	-0.080
00:00:01.922	-0.020	-0.080
00:00:01.924	-0.015	-0.080
00:00:01.926	-0.005	-0.085
00:00:01.928	-0.005	-0.085
00:00:01.930	-0.005	-0.085
00:00:01.932	-0.010	-0.085
00:00:01.934	-0.010	-0.090
00:00:01.936	-0.010	-0.090
00:00:01.938	-0.015	-0.095
00:00:01.940	-0.025	-0.095
00:00:01.942	-0.025	-0.100
00:00:01.944	-0.020	-0.100
00:00:01.946	-0.010	-0.100
00:00:01.948	-0.010	-0.100
00:00:01.950	-0.005	-0.100
00:00:01.952	-0.005	-0.100
00:00:01.954	-0.010	-0.100
00:00:01.956	-0.025	-0.100
00:00:01.958	-0.025	-0.100
00:00:01.960	-0.025	-0.100
00:00:01.962	-0.035	-0.105
00:00:01.964	-0.030	-0.105
00:00:01.966	-0.020	-0.110
00:00:01.968	-0.010	-0.110
00:00:01.970	-0.005	-0.110
00:00:01.972	-0.010	-0.115
00:00:01.974	-0.015	-0.115
00:00:01.976	-0.025	-0.115
00:00:01.978	-0.030	-0.115
00:00:01.980	-0.035	-0.115
00:00:01.982	-0.040	-0.115
00:00:01.984	-0.025	-0.115
00:00:01.986	-0.020	-0.115
00:00:01.988	-0.015	-0.115
00:00:01.990	-0.005	-0.110
00:00:01.992	0.000	-0.110
00:00:01.994	-0.010	-0.110
00:00:01.996	-0.025	-0.105
00:00:01.998	-0.030	-0.105
00:00:02.000	-0.045	-0.105
00:00:02.002	-0.045	-0.110
00:00:02.004	-0.045	-0.110
00:00:02.006	-0.035	-0.115
00:00:02.008	-0.040	-0.120
00:00:02.010	-0.025	-0.120
00:00:02.012	-0.010	-0.125
00:00:02.014	-0.025	-0.120
00:00:02.016	-0.040	-0.120
00:00:02.018	-0.040	-0.110
00:00:02.020	-0.030	-0.105
00:00:02.022	-0.035	-0.100
00:00:02.024	-0.040	-0.095
00:00:02.026	-0.025	-0.090
00:00:02.028	-0.020	-0.095
00:00:02.030	-0.015	-0.100
00:00:02.032	-0.005	-0.105
00:00:02.034	-0.010	-0.110
00:00:02.036	-0.025	-0.115
00:00:02.038	-0.040	-0.120
00:00:02.040	-0.045	-0.120
00:00:02.042	-0.040	-0.120
00:00:02.044	-0.020	-0.120
00:00:02.046	-0.015	-0.115
00:00:02.048	-0.010	-0.115
00:00:02.050	0.000	-0.115
00:00:02.052	-0.005	-0.115
00:00:02.054	-0.010	-0.110
00:00:02.056	-0.010	-0.110
00:00:02.058	-0.015	-0.105
00:00:02.060	0.000	-0.095
00:00:02.062	0.010	-0.085
00:00:02.064	0.025	-0.070
00:00:02.066	0.065	-0.055
00:00:02.068	0.070	-0.040
00:00:02.070	0.085	-0.025
00:00:02.072	0.100	-0.010
00:00:02.074	0.100	0.000
00:00:02.076	0.090	0.005
00:00:02.078	0.090	0.010
00:00:02.080	0.095	0.015
00:00:02.082	0.085	0.015
00:00:02.084	0.100	0.015
00:00:02.086	0.105	0.015
00:00:02.088	0.110	0.020
00:00:02.090	0.120	0.020
00:00:02.092	0.125	0.025
00:00:02.094	0.130	0.030
00:00:02.096	0.145	0.040
00:00:02.098	0.155	0.045
00:00:02.100	0.145	0.050
00:00:02.102	0.135	0.060
00:00:02.104	0.150	0.065
00:00:02.106	0.165	0.070
00:00:02.108	0.180	0.075
00:00:02.110	0.185	0.080
00:00:02.112	0.175	0.080
00:00:02.114	0.170	0.080
00:00:02.116	0.165	0.085
00:00:02.118	0.175	0.085
00:00:02.120	0.170	0.085
00:00:02.122	0.160	0.085
00:00:02.124	0.170	0.080
00:00:02.126	0.170	0.080
00:00:02.128	0.170	0.080
00:00:02.130	0.165	0.075
00:00:02.132	0.160	0.075
00:00:02.134	0.150	0.070
00:00:02.136	0.135	0.065
00:00:02.138	0.115	0.065
00:00:02.140	0.115	0.060
00:00:02.142	0.105	0.055
00:00:02.144	0.110	0.055
00:00:02.146	0.120	0.050
00:00:02.148	0.125	0.045
00:00:02.150	0.130	0.040
00:00:02.152	0.140	0.040
00:00:02.154	0.125	0.035
00:00:02.156	0.125	0.030
00:00:02.158	0.120	0.030
00:00:02.160	0.110	0.030
00:00:02.162	0.095	0.030
00:00:02.164	0.095	0.030
00:00:02.166	0.095	0.035
00:00:02.168	0.105	0.035
00:00:02.170	0.115	0.035
00:00:02.172	0.120	0.035
00:00:02.174	0.105	0.030
00:00:02.176	0.095	0.025
00:00:02.178	0.080	0.020
00:00:02.180	0.075	0.015
00:00:02.182	0.075	0.010
00:00:02.184	0.090	0.005
00:00:02.186	0.110	0.000
00:00:02.188	0.115	-0.005
00:00:02.190	0.120	-0.005
00:00:02.192	0.125	-0.005
00:00:02.194	0.095	-0.005
00:00:02.196	0.080	-0.005
00:00:02.198	0.070	0.000
00:00:02.200	0.060	0.000
00:00:02.202	0.085	0.005
00:00:02.204	0.100	0.005
00:00:02.206	0.100	0.010
00:00:02.208	0.105	0.010
00:00:02.210	0.115	0.005
00:00:02.212	0.105	0.005
00:00:02.214	0.095	0.005
00:00:02.216	0.085	0.000
00:00:02.218	0.075	0.000
00:00:02.220	0.070	0.000
00:00:02.222	0.080	0.000
00:00:02.224	0.075	-0.005
00:00:02.226	0.080	-0.005
00:00:02.228	0.090	-0.005
00:00:02.230	0.080	-0.010
00:00:02.232	0.090	-0.020
00:00:02.234	0.055	-0.025
00:00:02.236	0.045	-0.035
00:00:02.238	0.020	-0.040
00:00:02.240	0.020	-0.045
00:00:02.242	0.040	-0.040
00:00:02.244	0.070	-0.025
00:00:02.246	0.115	0.000
00:00:02.248	0.175	0.040
00:00:02.250	0.235	0.090
00:00:02.252	0.280	0.155
00:00:02.254	0.325	0.230
00:00:02.256	0.385	0.310
00:00:02.258	0.445	0.400
00:00:02.260	0.555	0.490
00:00:02.262	0.680	0.575
00:00:02.264	0.820	0.650
00:00:02.266	0.890	0.705
00:00:02.268	0.860	0.735
00:00:02.270	0.840	0.735
00:00:02.272	0.775	0.705
00:00:02.274	0.695	0.640
00:00:02.276	0.595	0.550
00:00:02.278	0.505	0.440
00:00:02.280	0.395	0.320
00:00:02.282	0.265	0.205
00:00:02.284	0.155	0.100
00:00:02.286	0.050	0.015
00:00:02.288	0.010	-0.045
00:00:02.290	0.035	-0.075
00:00:02.292	0.040	-0.085
00:00:02.294	0.040	-0.075
00:00:02.296	0.055	-0.055
00:00:02.298	0.060	-0.035
00:00:02.300	0.075	-0.010
00:00:02.302	0.095	0.005
00:00:02.304	0.120	0.010
00:00:02.306	0.130	0.015
00:00:02.308	0.125	0.015
00:00:02.310	0.130	0.015
00:00:02.312	0.120	0.015
00:00:02.314	0.105	0.020
00:00:02.316	0.090	0.025
00:00:02.318	0.085	0.030
00:00:02.320	0.090	0.030
00:00:02.322	0.105	0.035
00:00:02.324	0.110	0.035
00:00:02.326	0.110	0.030
00:00:02.328	0.120	0.025
00:00:02.330	0.130	0.020
00:00:02.332	0.125	0.015
00:00:02.334	0.110	0.010
00:00:02.336	0.090	0.010
00:00:02.338	0.075	0.015
00:00:02.340	0.080	0.020
00:00:02.342	0.095	0.025
00:00:02.344	0.115	0.030
00:00:02.346	0.115	0.030
00:00:02.348	0.115	0.035
00:00:02.350	0.140	0.030
00:00:02.352	0.110	0.030
00:00:02.354	0.100	0.025
00:00:02.356	0.095	0.025
00:00:02.358	0.085	0.025
00:00:02.360	0.100	0.020
00:00:02.362	0.120	0.020
00:00:02.364	0.130	0.020
00:00:02.366	0.135	0.020
00:00:02.368	0.140	0.020
00:00:02.370	0.145	0.020
00:00:02.372	0.130	0.020
00:00:02.374	0.115	0.020
00:00:02.376	0.110	0.020
00:00:02.378	0.105	0.020
00:00:02.380	0.110	0.025
00:00:02.382	0.130	0.025
00:00:02.384	0.140	0.030
00:00:02.386	0.150	0.035
00:00:02.388	0.155	0.040
00:00:02.390	0.165	0.040
00:00:02.392	0.135	0.045
00:00:02.394	0.115	0.045
00:00:02.396	0.110	0.045
00:00:02.398	0.115	0.045
00:00:02.400	0.110	0.045
00:00:02.402	0.130	0.040
00:00:02.404	0.135	0.040
00:00:02.406	0.140	0.040
00:00:02.408	0.155	0.045
00:00:02.410	0.165	0.045
00:00:02.412	0.160	0.045
00:00:02.414	0.150	0.050
00:00:02.416	0.145	0.050
00:00:02.418	0.145	0.050
00:00:02.420	0.135	0.055
00:00:02.422	0.140	0.055
00:00:02.424	0.165	0.060
00:00:02.426	0.170	0.065
00:00:02.428	0.175	0.070
00:00:02.430	0.170	0.075
00:00:02.432	0.170	0.080
00:00:02.434	0.165	0.085
00:00:02.436	0.175	0.090
00:00:02.438	0.160	0.090
00:00:02.440	0.165	0.095
00:00:02.442	0.180	0.095
00:00:02.444	0.210	0.095
00:00:02.446	0.215	0.100
00:00:02.448	0.225	0.105
00:00:02.450	0.225	0.110
00:00:02.452	0.215	0.120
00:00:02.454	0.210	0.130
00:00:02.456	0.220	0.140
00:00:02.458	0.200	0.150
00:00:02.460	0.225	0.165
00:00:02.462	0.250	0.170
00:00:02.464	0.255	0.180
00:00:02.466	0.260	0.185
00:00:02.468	0.270	0.185
00:00:02.470	0.270	0.190
00:00:02.472	0.270	0.190
00:00:02.474	0.265	0.190
00:00:02.476	0.265	0.190
00:00:02.478	0.250	0.190
00:00:02.480	0.265	0.195
00:00:02.482	0.265	0.200
00:00:02.484	0.280	0.205
00:00:02.486	0.295	0.205
00:00:02.488	0.295	0.210
00:00:02.490	0.290	0.215
00:00:02.492	0.290	0.215
00:00:02.494	0.285	0.215
00:00:02.496	0.280	0.210
00:00:02.498	0.260	0.205
00:00:02.500	0.260	0.200
00:00:02.502	0.255	0.195
00:00:02.504	0.260	0.190
00:00:02.506	0.260	0.185
00:00:02.508	0.270	0.185
00:00:02.510	0.260	0.180
00:00:02.512	0.235	0.175
00:00:02.514	0.220	0.170
00:00:02.516	0.190	0.160
00:00:02.518	0.170	0.150
00:00:02.520	0.170	0.135
00:00:02.522	0.150	0.120
00:00:02.524	0.155	0.105
00:00:02.526	0.160	0.090
00:00:02.528	0.150	0.075
00:00:02.530	0.130	0.065
00:00:02.532	0.120	0.055
00:00:02.534	0.095	0.050
00:00:02.536	0.095	0.045
00:00:02.538	0.075	0.045
00:00:02.540	0.080	0.040
00:00:02.542	0.075	0.030
00:00:02.544	0.075	0.025
00:00:02.546	0.065	0.015
00:00:02.548	0.065	0.005
00:00:02.550	0.035	-0.005
00:00:02.552	0.030	-0.015
00:00:02.554	0.020	-0.020
00:00:02.556	0.015	-0.025
00:00:02.558	-0.005	-0.030
00:00:02.560	0.000	-0.030
00:00:02.562	0.010	-0.035
00:00:02.564	0.010	-0.035
00:00:02.566	0.010	-0.040
00:00:02.568	0.030	-0.050
00:00:02.570	0.015	-0.055
00:00:02.572	0.005	-0.060
00:00:02.574	-0.010	-0.065
00:00:02.576	-0.020	-0.065
00:00:02.578	-0.030	-0.065
00:00:02.580	-0.020	-0.065
00:00:02.582	-0.015	-0.060
00:00:02.584	-0.010	-0.060
00:00:02.586	-0.005	-0.060
00:00:02.588	0.010	-0.065
00:00:02.590	-0.010	-0.070
00:00:02.592	-0.005	-0.075
00:00:02.594	-0.025	-0.080
00:00:02.596	-0.055	-0.090
00:00:02.598	-0.040	-0.090
00:00:02.600	-0.035	-0.090
00:00:02.602	-0.010	-0.090
00:00:02.604	0.000	-0.085
00:00:02.606	0.005	-0.080
00:00:02.608	0.005	-0.075
00:00:02.610	-0.005	-0.075
00:00:02.612	-0.030	-0.075
00:00:02.614	-0.035	-0.080
00:00:02.616	-0.040	-0.085
00:00:02.618	-0.030	-0.090
00:00:02.620	-0.035	-0.095
00:00:02.622	-0.030	-0.100
00:00:02.624	-0.020	-0.100
00:00:02.626	-0.015	-0.100
00:00:02.628	-0.010	-0.100
00:00:02.630	-0.025	-0.090
00:00:02.632	-0.035	-0.085
00:00:02.634	-0.055	-0.075
00:00:02.636	-0.055	-0.070
00:00:02.638	-0.050	-0.065
00:00:02.640	-0.040	-0.060
00:00:02.642	-0.025	-0.065
00:00:02.644	-0.015	-0.065
00:00:02.646	-0.020	-0.070
00:00:02.648	-0.010	-0.075
00:00:02.650	-0.025	-0.080
00:00:02.652	-0.030	-0.085
00:00:02.654	-0.035	-0.085
00:00:02.656	-0.050	-0.090
00:00:02.658	-0.055	-0.090
00:00:02.660	-0.040	-0.090
00:00:02.662	-0.040	-0.085
00:00:02.664	-0.020	-0.085
00:00:02.666	-0.015	-0.080
00:00:02.668	-0.020	-0.080
00:00:02.670	-0.030	-0.075
00:00:02.672	-0.045	-0.075
00:00:02.674	-0.050	-0.070
00:00:02.676	-0.055	-0.070
00:00:02.678	-0.055	-0.070
00:00:02.680	-0.050	-0.070
00:00:02.682	-0.020	-0.075
00:00:02.684	-0.025	-0.075
00:00:02.686	-0.025	-0.080
00:00:02.688	-0.015	-0.085
00:00:02.690	-0.035	-0.085
00:00:02.692	-0.040	-0.085
00:00:02.694	-0.040	-0.085
00:00:02.696	-0.040	-0.085
00:00:02.698	-0.040	-0.080
00:00:02.700	-0.025	-0.080
00:00:02.702	-0.035	-0.075
00:00:02.704	-0.030	-0.075
00:00:02.706	-0.025	-0.075
00:00:02.708	-0.030	-0.075
00:00:02.710	-0.045	-0.075
00:00:02.712	-0.060	-0.080
00:00:02.714	-0.060	-0.080
00:00:02.716	-0.065	-0.080
00:00:02.718	-0.060	-0.080
00:00:02.720	-0.040	-0.080
00:00:02.722	-0.030	-0.080
00:00:02.724	-0.035	-0.080
00:00:02.726	-0.030	-0.080
00:00:02.728	-0.025	-0.085
00:00:02.730	-0.045	-0.090
00:00:02.732	-0.045	-0.090
00:00:02.734	-0.065	-0.095
00:00:02.736	-0.070	-0.095
00:00:02.738	-0.065	-0.100
00:00:02.740	-0.055	-0.100
00:00:02.742	-0.050	-0.100
00:00:02.744	-0.035	-0.095
00:00:02.746	-0.030	-0.095
00:00:02.748	-0.030	-0.095
00:00:02.750	-0.045	-0.090
00:00:02.752	-0.060	-0.090
00:00:02.754	-0.065	-0.090
00:00:02.756	-0.075	-0.090
00:00:02.758	-0.070	-0.090
00:00:02.760	-0.050	-0.095
00:00:02.762	-0.050	-0.095
00:00:02.764	-0.040	-0.095
00:00:02.766	-0.030	-0.090
00:00:02.768	-0.040	-0.090
00:00:02.770	-0.045	-0.085
00:00:02.772	-0.060	-0.080
00:00:02.774	-0.060	-0.075
00:00:02.776	-0.065	-0.070
00:00:02.778	-0.075	-0.070
00:00:02.780	-0.070	-0.065
00:00:02.782	-0.060	-0.065
00:00:02.784	-0.055	-0.065
00:00:02.786	-0.045	-0.070
00:00:02.788	-0.050	-0.075
00:00:02.790	-0.055	-0.080
00:00:02.792	-0.065	-0.090
00:00:02.794	-0.065	-0.095
00:00:02.796	-0.080	-0.095
00:00:02.798	-0.065	-0.100
00:00:02.800	-0.055	-0.095
00:00:02.802	-0.040	-0.095
00:00:02.804	-0.040	-0.090
00:00:02.806	-0.030	-0.080
00:00:02.808	-0.035	-0.080
00:00:02.810	-0.050	-0.075
00:00:02.812	-0.075	-0.075
00:00:02.814	-0.075	-0.075
00:00:02.816	-0.095	-0.080
00:00:02.818	-0.090	-0.085
00:00:02.820	-0.065	-0.085
00:00:02.822	-0.055	-0.090
00:00:02.824	-0.045	-0.095
00:00:02.826	-0.045	-0.095
00:00:02.828	-0.055	-0.095
00:00:02.830	-0.070	-0.095
00:00:02.832	-0.080	-0.095
00:00:02.834	-0.075	-0.095
00:00:02.836	-0.075	-0.095
00:00:02.838	-0.065	-0.095
00:00:02.840	-0.060	-0.100
00:00:02.842	-0.055	-0.100
00:00:02.844	-0.045	-0.100
00:00:02.846	-0.040	-0.100
00:00:02.848	-0.040	-0.100
00:00:02.850	-0.055	-0.100
00:00:02.852	-0.075	-0.100
00:00:02.854	-0.075	-0.100
00:00:02.856	-0.080	-0.100
00:00:02.858	-0.065	-0.095
00:00:02.860	-0.060	-0.095
00:00:02.862	-0.055	-0.095
00:00:02.864	-0.060	-0.090
00:00:02.866	-0.045	-0.085
00:00:02.868	-0.065	-0.085
00:00:02.870	-0.075	-0.080
00:00:02.872	-0.085	-0.075
00:00:02.874	-0.090	-0.075
00:00:02.876	-0.090	-0.070
00:00:02.878	-0.075	-0.070
00:00:02.880	-0.055	-0.075
00:00:02.882	-0.030	-0.075
00:00:02.884	-0.025	-0.080
00:00:02.886	-0.045	-0.085
00:00:02.888	-0.065	-0.090
00:00:02.890	-0.075	-0.090
00:00:02.892	-0.085	-0.090
00:00:02.894	-0.090	-0.090
00:00:02.896	-0.100	-0.090
00:00:02.898	-0.085	-0.085
00:00:02.900	-0.070	-0.085
00:00:02.902	-0.060	-0.080
00:00:02.904	-0.045	-0.080
00:00:02.906	-0.040	-0.080
00:00:02.908	-0.060	-0.080
00:00:02.910	-0.070	-0.080
00:00:02.912	-0.075	-0.080
00:00:02.914	-0.085	-0.085
00:00:02.916	-0.085	-0.085
00:00:02.918	-0.070	-0.085
00:00:02.920	-0.060	-0.080
00:00:02.922	-0.060	-0.080
00:00:02.924	-0.055	-0.080
00:00:02.926	-0.050	-0.075
00:00:02.928	-0.065	-0.075
00:00:02.930	-0.075	-0.070
00:00:02.932	-0.075	-0.070
00:00:02.934	-0.080	-0.065
00:00:02.936	-0.070	-0.065
00:00:02.938	-0.060	-0.065
00:00:02.940	-0.055	-0.065
00:00:02.942	-0.055	-0.065
00:00:02.944	-0.045	-0.065
00:00:02.946	-0.040	-0.070
00:00:02.948	-0.065	-0.075
00:00:02.950	-0.080	-0.080
00:00:02.952	-0.090	-0.080
00:00:02.954	-0.070	-0.085
00:00:02.956	-0.080	-0.085
00:00:02.958	-0.070	-0.085
00:00:02.960	-0.050	-0.080
00:00:02.962	-0.045	-0.075
00:00:02.964	-0.050	-0.075
00:00:02.966	-0.045	-0.070
00:00:02.968	-0.055	-0.070
00:00:02.970	-0.070	-0.070
00:00:02.972	-0.075	-0.070
00:00:02.974	-0.070	-0.070
00:00:02.976	-0.065	-0.070
00:00:02.978	-0.060	-0.070
00:00:02.980	-0.055	-0.065
00:00:02.982	-0.055	-0.065
00:00:02.984	-0.040	-0.060
00:00:02.986	-0.045	-0.060
00:00:02.988	-0.060	-0.055
00:00:02.990	-0.055	-0.055
00:00:02.992	-0.050	-0.055
00:00:02.994	-0.065	-0.055
00:00:02.996	-0.055	-0.055
00:00:02.998	-0.040	-0.055
00:00:03.000	-0.035	-0.055
00:00:03.002	-0.015	-0.055
00:00:03.004	-0.020	-0.055
00:00:03.006	-0.030	-0.050
00:00:03.008	-0.035	-0.050
00:00:03.010	-0.050	-0.045
00:00:03.012	-0.050	-0.045
00:00:03.014	-0.050	-0.040
00:00:03.016	-0.050	-0.040
00:00:03.018	-0.040	-0.035
00:00:03.020	-0.020	-0.030
00:00:03.022	0.005	-0.025
00:00:03.024	0.010	-0.020
00:00:03.026	0.015	-0.020
00:00:03.028	0.000	-0.015
00:00:03.030	0.000	-0.010
00:00:03.032	-0.015	-0.005
00:00:03.034	-0.020	-0.005
00:00:03.036	-0.020	-0.005
00:00:03.038	-0.020	-0.005
00:00:03.040	-0.005	-0.005
00:00:03.042	0.010	-0.005
00:00:03.044	0.045	-0.010
00:00:03.046	0.025	-0.010
00:00:03.048	0.005	-0.010
00:00:03.050	0.000	-0.010
00:00:03.052	-0.025	-0.010
00:00:03.054	-0.045	-0.010
00:00:03.056	-0.040	-0.010
00:00:03.058	-0.025	-0.010
00:00:03.060	-0.025	-0.015
00:00:03.062	-0.030	-0.015
00:00:03.064	-0.030	-0.020
00:00:03.066	-0.050	-0.025
00:00:03.068	-0.060	-0.030
00:00:03.070	-0.075	-0.040
00:00:03.072	-0.085	-0.045
00:00:03.074	-0.090	-0.055
00:00:03.076	-0.090	-0.060
00:00:03.078	-0.070	-0.070
00:00:03.080	-0.070	-0.075
00:00:03.082	-0.055	-0.075
00:00:03.084	-0.045	-0.080
00:00:03.086	-0.055	-0.080
00:00:03.088	-0.070	-0.075
00:00:03.090	-0.080	-0.070
00:00:03.092	-0.080	-0.070
00:00:03.094	-0.090	-0.065
00:00:03.096	-0.090	-0.060
00:00:03.098	-0.080	-0.060
00:00:03.100	-0.060	-0.055
00:00:03.102	-0.060	-0.055
00:00:03.104	-0.060	-0.060
00:00:03.106	-0.080	-0.060
00:00:03.108	-0.080	-0.065
00:00:03.110	-0.085	-0.065
00:00:03.112	-0.105	-0.070
00:00:03.114	-0.110	-0.075
00:00:03.116	-0.100	-0.075
00:00:03.118	-0.080	-0.080
00:00:03.120	-0.075	-0.085
00:00:03.122	-0.065	-0.085
00:00:03.124	-0.055	-0.085
00:00:03.126	-0.070	-0.085
00:00:03.128	-0.085	-0.085
00:00:03.130	-0.100	-0.085
00:00:03.132	-0.110	-0.085
00:00:03.134	-0.105	-0.085
00:00:03.136	-0.090	-0.085
00:00:03.138	-0.085	-0.085
00:00:03.140	-0.080	-0.085
00:00:03.142	-0.075	-0.085
00:00:03.144	-0.050	-0.080
00:00:03.146	-0.080	-0.080
00:00:03.148	-0.085	-0.075
00:00:03.150	-0.090	-0.075
00:00:03.152	-0.110	-0.070
00:00:03.154	-0.120	-0.070
00:00:03.156	-0.105	-0.070
00:00:03.158	-0.095	-0.075
00:00:03.160	-0.100	-0.080
00:00:03.162	-0.100	-0.085
00:00:03.164	-0.105	-0.090
00:00:03.166	-0.125	-0.095
00:00:03.168	-0.130	-0.095
00:00:03.170	-0.125	-0.090
00:00:03.172	-0.125	-0.080
00:00:03.174	-0.090	-0.060
00:00:03.176	-0.020	-0.030
00:00:03.178	0.045	0.015
00:00:03.180	0.095	0.070
00:00:03.182	0.155	0.135
00:00:03.184	0.235	0.215
00:00:03.186	0.275	0.305
00:00:03.188	0.360	0.395
00:00:03.190	0.460	0.485
00:00:03.192	0.590	0.560
00:00:03.194	0.670	0.625
00:00:03.196	0.675	0.665
00:00:03.198	0.675	0.670
00:00:03.200	0.620	0.650
00:00:03.202	0.575	0.590
00:00:03.204	0.465	0.505
00:00:03.206	0.380	0.400
00:00:03.208	0.270	0.280
00:00:03.210	0.135	0.165
00:00:03.212	-0.010	0.055
00:00:03.214	-0.130	-0.035
00:00:03.216	-0.180	-0.100
00:00:03.218	-0.185	-0.135
00:00:03.220	-0.150	-0.150
00:00:03.222	-0.135	-0.150
00:00:03.224	-0.110	-0.135
00:00:03.226	-0.085	-0.110
00:00:03.228	-0.070	-0.090
00:00:03.230	-0.070	-0.075
00:00:03.232	-0.075	-0.060
00:00:03.234	-0.060	-0.050
00:00:03.236	-0.050	-0.045
00:00:03.238	-0.050	-0.045
00:00:03.240	-0.035	-0.040
00:00:03.242	-0.030	-0.035
00:00:03.244	-0.035	-0.030
00:00:03.246	-0.050	-0.025
00:00:03.248	-0.060	-0.020
00:00:03.250	-0.060	-0.015
00:00:03.252	-0.060	-0.015
00:00:03.254	-0.065	-0.015
00:00:03.256	-0.050	-0.020
00:00:03.258	-0.040	-0.020
00:00:03.260	-0.030	-0.025
00:00:03.262	-0.040	-0.025
00:00:03.264	-0.030	-0.025
00:00:03.266	-0.045	-0.025
00:00:03.268	-0.065	-0.025
00:00:03.270	-0.060	-0.025
00:00:03.272	-0.065	-0.020
00:00:03.274	-0.040	-0.025
00:00:03.276	-0.040	-0.025
00:00:03.278	-0.020	-0.025
00:00:03.280	-0.010	-0.025
00:00:03.282	-0.015	-0.020
00:00:03.284	-0.015	-0.020
00:00:03.286	-0.030	-0.015
00:00:03.288	-0.045	-0.015
00:00:03.290	-0.040	-0.010
00:00:03.292	-0.055	-0.010
00:00:03.294	-0.045	-0.005
00:00:03.296	-0.030	-0.005
00:00:03.298	-0.010	-0.005
00:00:03.300	0.005	-0.005
00:00:03.302	0.010	-0.010
00:00:03.304	0.000	-0.010
00:00:03.306	-0.025	-0.010
00:00:03.308	-0.030	-0.005
00:00:03.310	-0.035	-0.010
00:00:03.312	-0.065	-0.010
00:00:03.314	-0.040	-0.010
00:00:03.316	-0.015	-0.010
00:00:03.318	-0.015	-0.010
00:00:03.320	-0.005	-0.010
00:00:03.322	0.015	-0.010
00:00:03.324	0.010	-0.010
00:00:03.326	0.005	-0.005
00:00:03.328	-0.005	0.000
00:00:03.330	-0.010	0.005
00:00:03.332	-0.015	0.010
00:00:03.334	0.000	0.015
00:00:03.336	-0.005	0.015
00:00:03.338	0.000	0.020
00:00:03.340	0.010	0.020
00:00:03.342	0.025	0.025
00:00:03.344	0.030	0.025
00:00:03.346	0.015	0.030
00:00:03.348	0.015	0.035
00:00:03.350	0.000	0.040
00:00:03.352	0.010	0.050
00:00:03.354	0.010	0.055
00:00:03.356	0.030	0.060
00:00:03.358	0.045	0.060
00:00:03.360	0.055	0.065
00:00:03.362	0.065	0.065
00:00:03.364	0.070	0.065
00:00:03.366	0.065	0.065
00:00:03.368	0.060	0.065
00:00:03.370	0.050	0.070
00:00:03.372	0.065	0.075
00:00:03.374	0.070	0.085
00:00:03.376	0.100	0.090
00:00:03.378	0.110	0.095
00:00:03.380	0.115	0.105
00:00:03.382	0.130	0.110
00:00:03.384	0.130	0.115
00:00:03.386	0.120	0.120
00:00:03.388	0.115	0.125
00:00:03.390	0.115	0.130
00:00:03.392	0.125	0.135
00:00:03.394	0.140	0.145
00:00:03.396	0.155	0.150
00:00:03.398	0.170	0.160
00:00:03.400	0.165	0.165
00:00:03.402	0.175	0.175
00:00:03.404	0.165	0.180
00:00:03.406	0.170	0.185
00:00:03.408	0.185	0.185
00:00:03.410	0.180	0.190
00:00:03.412	0.175	0.195
00:00:03.414	0.195	0.195
00:00:03.416	0.200	0.200
00:00:03.418	0.210	0.205
00:00:03.420	0.195	0.210
00:00:03.422	0.215	0.210
00:00:03.424	0.195	0.215
00:00:03.426	0.195	0.220
00:00:03.428	0.190	0.225
00:00:03.430	0.170	0.225
00:00:03.432	0.165	0.225
00:00:03.434	0.170	0.220
00:00:03.436	0.185	0.215
00:00:03.438	0.170	0.205
00:00:03.440	0.175	0.195
00:00:03.442	0.170	0.180
00:00:03.444	0.175	0.170
00:00:03.446	0.130	0.155
00:00:03.448	0.125	0.145
00:00:03.450	0.120	0.140
00:00:03.452	0.105	0.135
00:00:03.454	0.105	0.135
00:00:03.456	0.110	0.135
00:00:03.458	0.105	0.135
00:00:03.460	0.100	0.130
00:00:03.462	0.090	0.125
00:00:03.464	0.075	0.115
00:00:03.466	0.065	0.100
00:00:03.468	0.045	0.080
00:00:03.470	0.025	0.065
00:00:03.472	0.005	0.045
00:00:03.474	0.005	0.030
00:00:03.476	-0.005	0.020
00:00:03.478	0.005	0.015
00:00:03.480	0.005	0.015
00:00:03.482	0.000	0.015
00:00:03.484	-0.015	0.015
00:00:03.486	-0.025	0.015
00:00:03.488	-0.030	0.015
00:00:03.490	-0.045	0.010
00:00:03.492	-0.050	0.000
00:00:03.494	-0.050	-0.005
00:00:03.496	-0.035	-0.015
00:00:03.498	-0.035	-0.025
00:00:03.500	-0.020	-0.025
00:00:03.502	-0.020	-0.030
00:00:03.504	-0.035	-0.030
00:00:03.506	-0.040	-0.030
00:00:03.508	-0.055	-0.030
00:00:03.510	-0.055	-0.030
00:00:03.512	-0.045	-0.030
00:00:03.514	-0.040	-0.030
00:00:03.516	-0.045	-0.035
00:00:03.518	-0.050	-0.035
00:00:03.520	-0.055	-0.040
00:00:03.522	-0.055	-0.045
00:00:03.524	-0.075	-0.050
00:00:03.526	-0.075	-0.050
00:00:03.528	-0.070	-0.050
00:00:03.530	-0.075	-0.050
00:00:03.532	-0.075	-0.050
00:00:03.534	-0.060	-0.050
00:00:03.536	-0.055	-0.045
00:00:03.538	-0.055	-0.045
00:00:03.540	-0.050	-0.045
00:00:03.542	-0.045	-0.050
00:00:03.544	-0.050	-0.050
00:00:03.546	-0.060	-0.055
00:00:03.548	-0.065	-0.055
00:00:03.550	-0.080	-0.055
00:00:03.552	-0.070	-0.055
00:00:03.554	-0.060	-0.055
00:00:03.556	-0.055	-0.050
00:00:03.558	-0.035	-0.050
00:00:03.560	-0.020	-0.045
00:00:03.562	-0.025	-0.040
00:00:03.564	-0.045	-0.035
00:00:03.566	-0.070	-0.030
00:00:03.568	-0.070	-0.030
00:00:03.570	-0.075	-0.035
00:00:03.572	-0.055	-0.040
00:00:03.574	-0.045	-0.045
00:00:03.576	-0.020	-0.050
00:00:03.578	-0.035	-0.055
00:00:03.580	-0.025	-0.060
00:00:03.582	-0.025	-0.060
00:00:03.584	-0.040	-0.065
00:00:03.586	-0.055	-0.065
00:00:03.588	-0.065	-0.065
00:00:03.590	-0.070	-0.065
00:00:03.592	-0.065	-0.060
00:00:03.594	-0.045	-0.055
00:00:03.596	-0.040	-0.050
00:00:03.598	-0.040	-0.050
00:00:03.600	-0.025	-0.045
00:00:03.602	-0.010	-0.045
00:00:03.604	-0.035	-0.045
00:00:03.606	-0.045	-0.045
00:00:03.608	-0.050	-0.050
00:00:03.610	-0.065	-0.050
00:00:03.612	-0.065	-0.055
00:00:03.614	-0.050	-0.055
00:00:03.616	-0.035	-0.055
00:00:03.618	-0.035	-0.055
00:00:03.620	-0.020	-0.050
00:00:03.622	-0.015	-0.040
00:00:03.624	-0.030	-0.030
00:00:03.626	-0.035	-0.025
00:00:03.628	-0.045	-0.020
00:00:03.630	-0.050	-0.015
00:00:03.632	-0.050	-0.015
00:00:03.634	-0.030	-0.020
00:00:03.636	-0.030	-0.025
00:00:03.638	-0.030	-0.030
00:00:03.640	-0.025	-0.040
00:00:03.642	-0.010	-0.045
00:00:03.644	-0.040	-0.045
00:00:03.646	-0.035	-0.045
00:00:03.648	-0.040	-0.045
00:00:03.650	-0.050	-0.040
00:00:03.652	-0.035	-0.035
00:00:03.654	-0.035	-0.030
00:00:03.656	-0.015	-0.030
00:00:03.658	-0.025	-0.025
00:00:03.660	-0.015	-0.025
00:00:03.662	-0.015	-0.025
00:00:03.664	-0.025	-0.025
00:00:03.666	-0.040	-0.030
00:00:03.668	-0.040	-0.030
00:00:03.670	-0.050	-0.035
00:00:03.672	-0.055	-0.035
00:00:03.674	-0.040	-0.040
00:00:03.676	-0.030	-0.040
00:00:03.678	-0.025	-0.045
00:00:03.680	-0.025	-0.045
00:00:03.682	-0.030	-0.050
00:00:03.684	-0.035	-0.050
00:00:03.686	-0.060	-0.055
00:00:03.688	-0.060	-0.060
00:00:03.690	-0.070	-0.060
00:00:03.692	-0.060	-0.060
00:00:03.694	-0.035	-0.060
00:00:03.696	-0.030	-0.055
00:00:03.698	-0.010	-0.050
00:00:03.700	-0.025	-0.045
00:00:03.702	-0.025	-0.040
00:00:03.704	-0.040	-0.035
00:00:03.706	-0.055	-0.035
00:00:03.708	-0.070	-0.035
00:00:03.710	-0.075	-0.040
00:00:03.712	-0.040	-0.045
00:00:03.714	-0.045	-0.055
00:00:03.716	-0.040	-0.060
00:00:03.718	-0.045	-0.070
00:00:03.720	-0.030	-0.070
00:00:03.722	-0.035	-0.075
00:00:03.724	-0.050	-0.075
00:00:03.726	-0.055	-0.070
00:00:03.728	-0.065	-0.070
00:00:03.730	-0.070	-0.065
00:00:03.732	-0.065	-0.065
00:00:03.734	-0.060	-0.065
00:00:03.736	-0.050	-0.065
00:00:03.738	-0.040	-0.070
00:00:03.740	-0.030	-0.070
00:00:03.742	-0.045	-0.075
00:00:03.744	-0.055	-0.075
00:00:03.746	-0.050	-0.075
00:00:03.748	-0.060	-0.070
00:00:03.750	-0.070	-0.070
00:00:03.752	-0.045	-0.065
00:00:03.754	-0.040	-0.060
00:00:03.756	-0.030	-0.055
00:00:03.758	-0.025	-0.055
00:00:03.760	-0.040	-0.050
00:00:03.762	-0.040	-0.050
00:00:03.764	-0.055	-0.050
00:00:03.766	-0.055	-0.050
00:00:03.768	-0.065	-0.050
00:00:03.770	-0.065	-0.050
00:00:03.772	-0.065	-0.055
00:00:03.774	-0.060	-0.055
00:00:03.776	-0.025	-0.060
00:00:03.778	-0.030	-0.065
00:00:03.780	-0.015	-0.070
00:00:03.782	-0.040	-0.075
00:00:03.784	-0.060	-0.075
00:00:03.786	-0.065	-0.080
00:00:03.788	-0.070	-0.080
00:00:03.790	-0.075	-0.075
00:00:03.792	-0.060	-0.070
00:00:03.794	-0.050	-0.065
00:00:03.796	-0.025	-0.060
00:00:03.798	-0.025	-0.055
00:00:03.800	-0.025	-0.055
00:00:03.802	-0.030	-0.055
00:00:03.804	-0.045	-0.060
00:00:03.806	-0.055	-0.065
00:00:03.808	-0.060	-0.065
00:00:03.810	-0.080	-0.070
00:00:03.812	-0.075	-0.075
00:00:03.814	-0.070	-0.080
00:00:03.816	-0.060	-0.085
00:00:03.818	-0.035	-0.085
00:00:03.820	-0.035	-0.090
00:00:03.822	-0.055	-0.090
00:00:03.824	-0.055	-0.090
00:00:03.826	-0.065	-0.090
00:00:03.828	-0.075	-0.090
00:00:03.830	-0.075	-0.090
00:00:03.832	-0.065	-0.085
00:00:03.834	-0.045	-0.085
00:00:03.836	-0.035	-0.080
00:00:03.838	-0.025	-0.080
00:00:03.840	-0.035	-0.075
00:00:03.842	-0.035	-0.070
00:00:03.844	-0.040	-0.070
00:00:03.846	-0.045	-0.065
00:00:03.848	-0.060	-0.065
00:00:03.850	-0.060	-0.065
00:00:03.852	-0.040	-0.065
00:00:03.854	-0.035	-0.065
00:00:03.856	-0.030	-0.070
00:00:03.858	-0.020	-0.070
00:00:03.860	-0.015	-0.075
00:00:03.862	-0.030	-0.075
00:00:03.864	-0.035	-0.075
00:00:03.866	-0.040	-0.070
00:00:03.868	-0.050	-0.070
00:00:03.870	-0.045	-0.065
00:00:03.872	-0.050	-0.060
00:00:03.874	-0.025	-0.055
00:00:03.876	0.005	-0.045
00:00:03.878	0.010	-0.040
00:00:03.880	0.020	-0.035
00:00:03.882	0.030	-0.035
00:00:03.884	0.035	-0.030
00:00:03.886	0.030	-0.025
00:00:03.888	0.035	-0.020
00:00:03.890	0.025	-0.015
00:00:03.892	0.040	-0.010
00:00:03.894	0.045	0.000
00:00:03.896	0.055	0.005
00:00:03.898	0.065	0.010
00:00:03.900	0.075	0.015
00:00:03.902	0.065	0.020
00:00:03.904	0.055	0.020
00:00:03.906	0.045	0.025
00:00:03.908	0.040	0.025
00:00:03.910	0.055	0.030
00:00:03.912	0.065	0.030
00:00:03.914	0.090	0.035
00:00:03.916	0.105	0.040
00:00:03.918	0.125	0.045
00:00:03.920	0.130	0.045
00:00:03.922	0.095	0.050
00:00:03.924	0.090	0.055
00:00:03.926	0.100	0.060
00:00:03.928	0.090	0.060
00:00:03.930	0.095	0.060
00:00:03.932	0.100	0.060
00:00:03.934	0.110	0.060
00:00:03.936	0.125	0.060
00:00:03.938	0.135	0.060
00:00:03.940	0.145	0.065
00:00:03.942	0.145	0.065
00:00:03.944	0.130	0.070
00:00:03.946	0.135	0.075
00:00:03.948	0.120	0.080
00:00:03.950	0.125	0.085
00:00:03.952	0.125	0.090
00:00:03.954	0.135	0.090
00:00:03.956	0.145	0.095
00:00:03.958	0.155	0.100
00:00:03.960	0.170	0.105
00:00:03.962	0.160	0.110
00:00:03.964	0.165	0.110
00:00:03.966	0.165	0.115
00:00:03.968	0.155	0.115
00:00:03.970	0.155	0.115
00:00:03.972	0.160	0.115
00:00:03.974	0.155	0.115
00:00:03.976	0.165	0.115
00:00:03.978	0.180	0.110
00:00:03.980	0.165	0.105
00:00:03.982	0.160	0.100
00:00:03.984	0.160	0.100
00:00:03.986	0.160	0.100
00:00:03.988	0.140	0.095
00:00:03.990	0.130	0.095
00:00:03.992	0.140	0.095
00:00:03.994	0.140	0.095
00:00:03.996	0.135	0.095
00:00:03.998	0.135	0.095
00:00:04.000	0.130	0.090
00:00:04.002	0.110	0.085
00:00:04.004	0.110	0.085
00:00:04.006	0.095	0.080
00:00:04.008	0.090	0.075
00:00:04.010	0.095	0.075
00:00:04.012	0.105	0.075
00:00:04.014	0.120	0.070
00:00:04.016	0.125	0.070
00:00:04.018	0.120	0.065
00:00:04.020	0.110	0.060
00:00:04.022	0.105	0.055
00:00:04.024	0.090	0.050
00:00:04.026	0.085	0.045
00:00:04.028	0.070	0.040
00:00:04.030	0.085	0.040
00:00:04.032	0.105	0.035
00:00:04.034	0.100	0.035
00:00:04.036	0.105	0.040
00:00:04.038	0.100	0.040
00:00:04.040	0.095	0.035
00:00:04.042	0.080	0.035
00:00:04.044	0.070	0.030
00:00:04.046	0.075	0.025
00:00:04.048	0.055	0.020
00:00:04.050	0.070	0.015
00:00:04.052	0.070	0.010
00:00:04.054	0.080	0.010
00:00:04.056	0.085	0.010
00:00:04.058	0.100	0.015
00:00:04.060	0.085	0.020
00:00:04.062	0.065	0.025
00:00:04.064	0.060	0.030
00:00:04.066	0.050	0.035
00:00:04.068	0.050	0.040
00:00:04.070	0.055	0.040
00:00:04.072	0.070	0.040
00:00:04.074	0.080	0.035
00:00:04.076	0.085	0.030
00:00:04.078	0.085	0.025
00:00:04.080	0.070	0.020
00:00:04.082	0.065	0.015
00:00:04.084	0.065	0.015
00:00:04.086	0.045	0.015
00:00:04.088	0.065	0.015
00:00:04.090	0.065	0.015
00:00:04.092	0.065	0.015
00:00:04.094	0.070	0.015
00:00:04.096	0.060	0.010
00:00:04.098	0.070	0.005
00:00:04.100	0.060	-0.005
00:00:04.102	0.035	-0.010
00:00:04.104	0.030	-0.015
00:00:04.106	0.040	-0.015
00:00:04.108	0.055	-0.005
00:00:04.110	0.085	0.015
00:00:04.112	0.130	0.045
00:00:04.114	0.185	0.090
00:00:04.116	0.235	0.145
00:00:04.118	0.290	0.210
00:00:04.120	0.330	0.285
00:00:04.122	0.395	0.365
00:00:04.124	0.500	0.445
00:00:04.126	0.605	0.520
00:00:04.128	0.705	0.585
00:00:04.130	0.755	0.630
00:00:04.132	0.755	0.655
00:00:04.134	0.740	0.655
00:00:04.136	0.695	0.630
00:00:04.138	0.615	0.570
00:00:04.140	0.515	0.490
00:00:04.142	0.430	0.390
00:00:04.144	0.325	0.280
00:00:04.146	0.190	0.165
00:00:04.148	0.070	0.065
00:00:04.150	-0.015	-0.015
00:00:04.152	-0.045	-0.075
00:00:04.154	-0.040	-0.105
00:00:04.156	-0.020	-0.115
00:00:04.158	0.015	-0.100
00:00:04.160	0.025	-0.080
00:00:04.162	0.025	-0.050
00:00:04.164	0.040	-0.020
00:00:04.166	0.060	0.005
00:00:04.168	0.085	0.020
00:00:04.170	0.090	0.030
00:00:04.172	0.100	0.030
00:00:04.174	0.120	0.030
00:00:04.176	0.110	0.030
00:00:04.178	0.090	0.030
00:00:04.180	0.075	0.030
00:00:04.182	0.070	0.035
00:00:04.184	0.065	0.040
00:00:04.186	0.070	0.040
00:00:04.188	0.070	0.040
00:00:04.190	0.085	0.040
00:00:04.192	0.090	0.035
00:00:04.194	0.105	0.030
00:00:04.196	0.105	0.025
00:00:04.198	0.110	0.020
00:00:04.200	0.095	0.015
00:00:04.202	0.095	0.015
00:00:04.204	0.085	0.015
00:00:04.206	0.085	0.015
00:00:04.208	0.085	0.020
00:00:04.210	0.100	0.020
00:00:04.212	0.110	0.025
00:00:04.214	0.120	0.025
00:00:04.216	0.130	0.025
00:00:04.218	0.110	0.030
00:00:04.220	0.090	0.030
00:00:04.222	0.075	0.025
00:00:04.224	0.070	0.025
00:00:04.226	0.070	0.025
00:00:04.228	0.075	0.025
00:00:04.230	0.095	0.025
00:00:04.232	0.115	0.025
00:00:04.234	0.125	0.025
00:00:04.236	0.130	0.030
00:00:04.238	0.125	0.030
00:00:04.240	0.115	0.030
00:00:04.242	0.105	0.030
00:00:04.244	0.100	0.030
00:00:04.246	0.105	0.030
00:00:04.248	0.110	0.030
00:00:04.250	0.120	0.030
00:00:04.252	0.125	0.030
00:00:04.254	0.125	0.035
00:00:04.256	0.130	0.035
00:00:04.258	0.130	0.040
00:00:04.260	0.105	0.045
00:00:04.262	0.105	0.050
00:00:04.264	0.120	0.055
00:00:04.266	0.105	0.060
00:00:04.268	0.110	0.065
00:00:04.270	0.120	0.065
00:00:04.272	0.130	0.070
00:00:04.274	0.145	0.065
00:00:04.276	0.165	0.065
00:00:04.278	0.150	0.060
00:00:04.280	0.140	0.055
00:00:04.282	0.130	0.050
00:00:04.284	0.125	0.050
00:00:04.286	0.130	0.050
00:00:04.288	0.130	0.050
00:00:04.290	0.140	0.055
00:00:04.292	0.140	0.055
00:00:04.294	0.145	0.060
00:00:04.296	0.165	0.065
00:00:04.298	0.170	0.070
00:00:04.300	0.160	0.075
00:00:04.302	0.160	0.080
00:00:04.304	0.165	0.085
00:00:04.306	0.160	0.095
00:00:04.308	0.185	0.100
00:00:04.310	0.180	0.110
00:00:04.312	0.195	0.120
00:00:04.314	0.200	0.125
00:00:04.316	0.210	0.130
00:00:04.318	0.205	0.135
00:00:04.320	0.200	0.140
00:00:04.322	0.200	0.140
00:00:04.324	0.200	0.140
00:00:04.326	0.200	0.145
00:00:04.328	0.215	0.145
00:00:04.330	0.225	0.150
00:00:04.332	0.250	0.155
00:00:04.334	0.260	0.165
00:00:04.336	0.270	0.170
00:00:04.338	0.255	0.180
00:00:04.340	0.255	0.185
00:00:04.342	0.260	0.190
00:00:04.344	0.260	0.190
00:00:04.346	0.245	0.190
00:00:04.348	0.260	0.190
00:00:04.350	0.270	0.190
00:00:04.352	0.265	0.185
00:00:04.354	0.270	0.185
00:00:04.356	0.255	0.185
00:00:04.358	0.265	0.185
00:00:04.360	0.260	0.190
00:00:04.362	0.245	0.195
00:00:04.364	0.240	0.195
00:00:04.366	0.235	0.195
00:00:04.368	0.240	0.195
00:00:04.370	0.255	0.190
00:00:04.372	0.235	0.190
00:00:04.374	0.240	0.180
00:00:04.376	0.240	0.175
00:00:04.378	0.220	0.165
00:00:04.380	0.200	0.155
00:00:04.382	0.180	0.145
00:00:04.384	0.165	0.135
00:00:04.386	0.150	0.125
00:00:04.388	0.155	0.110
00:00:04.390	0.155	0.100
00:00:04.392	0.150	0.090
00:00:04.394	0.135	0.075
00:00:04.396	0.120	0.060
00:00:04.398	0.090	0.050
00:00:04.400	0.085	0.040
00:00:04.402	0.070	0.030
00:00:04.404	0.050	0.020
00:00:04.406	0.040	0.010
00:00:04.408	0.045	0.005
00:00:04.410	0.045	0.000
00:00:04.412	0.040	-0.010
00:00:04.414	0.050	-0.015
00:00:04.416	0.045	-0.020
00:00:04.418	0.030	-0.025
00:00:04.420	0.010	-0.030
00:00:04.422	-0.005	-0.040
00:00:04.424	-0.015	-0.045
00:00:04.426	-0.025	-0.050
00:00:04.428	-0.015	-0.055
00:00:04.430	-0.010	-0.055
00:00:04.432	0.000	-0.060
00:00:04.434	0.005	-0.060
00:00:04.436	0.005	-0.065
00:00:04.438	-0.020	-0.065
00:00:04.440	-0.030	-0.070
00:00:04.442	-0.045	-0.080
00:00:04.444	-0.060	-0.085
00:00:04.446	-0.040	-0.095
00:00:04.448	-0.040	-0.100
00:00:04.450	-0.020	-0.105
00:00:04.452	-0.015	-0.110
00:00:04.454	-0.015	-0.110
00:00:04.456	-0.010	-0.110
00:00:04.458	-0.020	-0.110
00:00:04.460	-0.050	-0.105
00:00:04.462	-0.055	-0.105
00:00:04.464	-0.075	-0.100
00:00:04.466	-0.060	-0.100
00:00:04.468	-0.055	-0.100
00:00:04.470	-0.035	-0.100
00:00:04.472	-0.030	-0.105
00:00:04.474	-0.030	-0.105
00:00:04.476	-0.025	-0.105
00:00:04.478	-0.040	-0.105
00:00:04.480	-0.060	-0.105
00:00:04.482	-0.055	-0.105
00:00:04.484	-0.055	-0.105
00:00:04.486	-0.065	-0.105
00:00:04.488	-0.060	-0.110
00:00:04.490	-0.050	-0.110
00:00:04.492	-0.030	-0.115
00:00:04.494	-0.020	-0.115
00:00:04.496	-0.020	-0.115
00:00:04.498	-0.030	-0.120
00:00:04.500	-0.040	-0.120
00:00:04.502	-0.050	-0.115
00:00:04.504	-0.065	-0.115
00:00:04.506	-0.070	-0.110
00:00:04.508	-0.055	-0.110
00:00:04.510	-0.035	-0.105
00:00:04.512	-0.025	-0.105
00:00:04.514	-0.020	-0.105
00:00:04.516	-0.015	-0.105
00:00:04.518	-0.030	-0.105
00:00:04.520	-0.045	-0.105
00:00:04.522	-0.045	-0.110
00:00:04.524	-0.050	-0.110
00:00:04.526	-0.040	-0.110
00:00:04.528	-0.025	-0.110
00:00:04.530	-0.015	-0.105
00:00:04.532	-0.015	-0.105
00:00:04.534	0.000	-0.100
00:00:04.536	-0.010	-0.095
00:00:04.538	-0.035	-0.095
00:00:04.540	-0.055	-0.090
00:00:04.542	-0.040	-0.090
00:00:04.544	-0.065	-0.090
00:00:04.546	-0.040	-0.095
00:00:04.548	-0.050	-0.100
00:00:04.550	-0.035	-0.100
00:00:04.552	-0.010	-0.105
00:00:04.554	0.005	-0.105
00:00:04.556	-0.020	-0.105
00:00:04.558	-0.040	-0.105
00:00:04.560	-0.040	-0.100
00:00:04.562	-0.040	-0.090
00:00:04.564	-0.065	-0.085
00:00:04.566	-0.045	-0.080
00:00:04.568	-0.035	-0.075
00:00:04.570	-0.025	-0.070
00:00:04.572	-0.025	-0.070
00:00:04.574	-0.010	-0.075
00:00:04.576	-0.015	-0.080
00:00:04.578	-0.035	-0.085
00:00:04.580	-0.035	-0.090
00:00:04.582	-0.045	-0.095
00:00:04.584	-0.050	-0.095
00:00:04.586	-0.050	-0.095
00:00:04.588	-0.040	-0.090
00:00:04.590	-0.040	-0.090
00:00:04.592	-0.045	-0.085
00:00:04.594	-0.025	-0.085
00:00:04.596	-0.040	-0.085
00:00:04.598	-0.045	-0.085
00:00:04.600	-0.055	-0.085
00:00:04.602	-0.070	-0.090
00:00:04.604	-0.070	-0.090
00:00:04.606	-0.060	-0.090
00:00:04.608	-0.045	-0.090
00:00:04.610	-0.035	-0.090
00:00:04.612	-0.030	-0.085
00:00:04.614	-0.025	-0.080
00:00:04.616	-0.025	-0.080
00:00:04.618	-0.035	-0.080
00:00:04.620	-0.050	-0.080
00:00:04.622	-0.075	-0.085
00:00:04.624	-0.100	-0.090
00:00:04.626	-0.070	-0.095
00:00:04.628	-0.050	-0.100
00:00:04.630	-0.050	-0.100
00:00:04.632	-0.040	-0.105
00:00:04.634	-0.035	-0.105
00:00:04.636	-0.040	-0.110
00:00:04.638	-0.050	-0.105
00:00:04.640	-0.060	-0.105
00:00:04.642	-0.075	-0.105
00:00:04.644	-0.070	-0.105
00:00:04.646	-0.050	-0.100
00:00:04.648	-0.050	-0.100
00:00:04.650	-0.050	-0.095
00:00:04.652	-0.040	-0.095
00:00:04.654	-0.035	-0.095
00:00:04.656	-0.045	-0.095
00:00:04.658	-0.060	-0.095
00:00:04.660	-0.070	-0.100
00:00:04.662	-0.075	-0.100
00:00:04.664	-0.080	-0.105
00:00:04.666	-0.075	-0.105
00:00:04.668	-0.040	-0.105
00:00:04.670	-0.045	-0.110
00:00:04.672	-0.040	-0.110
00:00:04.674	-0.035	-0.110
00:00:04.676	-0.055	-0.110
00:00:04.678	-0.055	-0.110
00:00:04.680	-0.065	-0.115
00:00:04.682	-0.075	-0.115
00:00:04.684	-0.075	-0.115
00:00:04.686	-0.060	-0.120
00:00:04.688	-0.065	-0.120
00:00:04.690	-0.060	-0.120
00:00:04.692	-0.055	-0.115
00:00:04.694	-0.045	-0.110
00:00:04.696	-0.045	-0.105
00:00:04.698	-0.060	-0.100
00:00:04.700	-0.080	-0.095
00:00:04.702	-0.070	-0.090
00:00:04.704	-0.075	-0.090
00:00:04.706	-0.060	-0.090
00:00:04.708	-0.055	-0.090
00:00:04.710	-0.065	-0.095
00:00:04.712	-0.045	-0.100
00:00:04.714	-0.045	-0.105
00:00:04.716	-0.050	-0.105
00:00:04.718	-0.065	-0.110
00:00:04.720	-0.065	-0.110
00:00:04.722	-0.075	-0.105
00:00:04.724	-0.080	-0.105
00:00:04.726	-0.065	-0.100
00:00:04.728	-0.055	-0.095
00:00:04.730	-0.050	-0.095
00:00:04.732	-0.050	-0.090
00:00:04.734	-0.040	-0.090
00:00:04.736	-0.060	-0.090
00:00:04.738	-0.065	-0.095
00:00:04.740	-0.075	-0.095
00:00:04.742	-0.085	-0.100
00:00:04.744	-0.080	-0.105
00:00:04.746	-0.065	-0.110
00:00:04.748	-0.060	-0.110
00:00:04.750	-0.055	-0.115
00:00:04.752	-0.050	-0.110
00:00:04.754	-0.035	-0.110
00:00:04.756	-0.065	-0.105
00:00:04.758	-0.070	-0.100
00:00:04.760	-0.055	-0.095
00:00:04.762	-0.085	-0.090
00:00:04.764	-0.070	-0.085
00:00:04.766	-0.065	-0.085
00:00:04.768	-0.045	-0.090
00:00:04.770	-0.060	-0.095
00:00:04.772	-0.050	-0.105
00:00:04.774	-0.045	-0.110
00:00:04.776	-0.070	-0.115
00:00:04.778	-0.080	-0.120
00:00:04.780	-0.075	-0.125
00:00:04.782	-0.085	-0.120
00:00:04.784	-0.090	-0.115
00:00:04.786	-0.070	-0.110
00:00:04.788	-0.050	-0.105
00:00:04.790	-0.055	-0.095
00:00:04.792	-0.045	-0.090
00:00:04.794	-0.040	-0.085
00:00:04.796	-0.050	-0.085
00:00:04.798	-0.075	-0.085
00:00:04.800	-0.075	-0.085
00:00:04.802	-0.090	-0.090
00:00:04.804	-0.090	-0.090
00:00:04.806	-0.075	-0.095
00:00:04.808	-0.070	-0.095
00:00:04.810	-0.060	-0.095
00:00:04.812	-0.045	-0.095
00:00:04.814	-0.050	-0.095
00:00:04.816	-0.065	-0.095
00:00:04.818	-0.080	-0.090
00:00:04.820	-0.075	-0.090
00:00:04.822	-0.075	-0.090
00:00:04.824	-0.065	-0.090
00:00:04.826	-0.065	-0.090
00:00:04.828	-0.065	-0.090
00:00:04.830	-0.065	-0.090
00:00:04.832	-0.050	-0.095
00:00:04.834	-0.065	-0.095
00:00:04.836	-0.075	-0.095
00:00:04.838	-0.075	-0.100
00:00:04.840	-0.075	-0.100
00:00:04.842	-0.085	-0.100
00:00:04.844	-0.075	-0.100
00:00:04.846	-0.060	-0.095
00:00:04.848	-0.040	-0.090
00:00:04.850	-0.040	-0.085
00:00:04.852	-0.030	-0.080
00:00:04.854	-0.030	-0.075
00:00:04.856	-0.045	-0.065
00:00:04.858	-0.055	-0.060
00:00:04.860	-0.055	-0.060
00:00:04.862	-0.050	-0.055
00:00:04.864	-0.045	-0.055
00:00:04.866	-0.040	-0.055
00:00:04.868	-0.035	-0.055
00:00:04.870	-0.015	-0.055
00:00:04.872	0.000	-0.055
00:00:04.874	-0.005	-0.050
00:00:04.876	-0.015	-0.050
00:00:04.878	-0.020	-0.050
00:00:04.880	-0.020	-0.045
00:00:04.882	-0.015	-0.040
00:00:04.884	0.000	-0.035
00:00:04.886	-0.010	-0.035
00:00:04.888	0.005	-0.030
00:00:04.890	0.010	-0.025
00:00:04.892	0.010	-0.025
00:00:04.894	-0.005	-0.025
00:00:04.896	-0.010	-0.025
00:00:04.898	-0.015	-0.025
00:00:04.900	-0.015	-0.030
00:00:04.902	-0.025	-0.030
00:00:04.904	-0.020	-0.035
00:00:04.906	-0.010	-0.040
00:00:04.908	0.010	-0.040
00:00:04.910	0.000	-0.045
00:00:04.912	-0.005	-0.045
00:00:04.914	-0.030	-0.050
00:00:04.916	-0.045	-0.050
00:00:04.918	-0.060	-0.055
00:00:04.920	-0.065	-0.060
00:00:04.922	-0.080	-0.060
00:00:04.924	-0.080	-0.065
00:00:04.926	-0.070	-0.070
00:00:04.928	-0.065	-0.070
00:00:04.930	-0.050	-0.075
00:00:04.932	-0.045	-0.075
00:00:04.934	-0.060	-0.075
00:00:04.936	-0.065	-0.075
00:00:04.938	-0.075	-0.080
00:00:04.940	-0.090	-0.080
00:00:04.942	-0.105	-0.080
00:00:04.944	-0.085	-0.080
00:00:04.946	-0.065	-0.085
00:00:04.948	-0.065	-0.090
00:00:04.950	-0.070	-0.090
00:00:04.952	-0.055	-0.095
00:00:04.954	-0.060	-0.100
00:00:04.956	-0.075	-0.100
00:00:04.958	-0.095	-0.105
00:00:04.960	-0.105	-0.105
00:00:04.962	-0.120	-0.105
00:00:04.964	-0.110	-0.105
00:00:04.966	-0.075	-0.105
00:00:04.968	-0.080	-0.105
00:00:04.970	-0.070	-0.105
00:00:04.972	-0.060	-0.100
00:00:04.974	-0.080	-0.100
00:00:04.976	-0.095	-0.100
00:00:04.978	-0.110	-0.100
00:00:04.980	-0.100	-0.100
00:00:04.982	-0.090	-0.095
00:00:04.984	-0.095	-0.095
00:00:04.986	-0.085	-0.090
00:00:04.988	-0.075	-0.085
00:00:04.990	-0.075	-0.085
00:00:04.992	-0.065	-0.085
00:00:04.994	-0.080	-0.085
00:00:04.996	-0.100	-0.085
00:00:04.998	-0.100	-0.085
00:00:05.000	-0.100	-0.090
00:00:05.002	-0.100	-0.095
00:00:05.004	-0.090	-0.095
00:00:05.006	-0.090	-0.100
00:00:05.008	-0.080	-0.100
00:00:05.010	-0.095	-0.105
00:00:05.012	-0.090	-0.105
00:00:05.014	-0.100	-0.110
00:00:05.016	-0.105	-0.115
00:00:05.018	-0.125	-0.115
00:00:05.020	-0.145	-0.120
00:00:05.022	-0.145	-0.115
00:00:05.024	-0.115	-0.110
00:00:05.026	-0.075	-0.090
00:00:05.028	-0.020	-0.065
00:00:05.030	0.035	-0.020
00:00:05.032	0.090	0.030
00:00:05.034	0.120	0.100
00:00:05.036	0.180	0.175
00:00:05.038	0.245	0.260
00:00:05.040	0.325	0.350
00:00:05.042	0.425	0.435
00:00:05.044	0.555	0.510
00:00:05.046	0.640	0.570
00:00:05.048	0.650	0.605
00:00:05.050	0.645	0.610
00:00:05.052	0.595	0.590
00:00:05.054	0.520	0.540
00:00:05.056	0.425	0.465
00:00:05.058	0.335	0.365
00:00:05.060	0.245	0.260
00:00:05.062	0.130	0.150
00:00:05.064	0.020	0.045
00:00:05.066	-0.090	-0.040
00:00:05.068	-0.165	-0.105
00:00:05.070	-0.170	-0.145
00:00:05.072	-0.145	-0.165
00:00:05.074	-0.125	-0.165
00:00:05.076	-0.125	-0.150
00:00:05.078	-0.115	-0.135
00:00:05.080	-0.105	-0.115
00:00:05.082	-0.095	-0.095
00:00:05.084	-0.070	-0.085
00:00:05.086	-0.060	-0.075
00:00:05.088	-0.040	-0.075
00:00:05.090	-0.040	-0.075
00:00:05.092	-0.035	-0.075
00:00:05.094	-0.055	-0.070
00:00:05.096	-0.070	-0.070
00:00:05.098	-0.085	-0.065
00:00:05.100	-0.085	-0.060
00:00:05.102	-0.080	-0.055
00:00:05.104	-0.065	-0.050
00:00:05.106	-0.050	-0.050
00:00:05.108	-0.035	-0.050
00:00:05.110	-0.025	-0.050
00:00:05.112	-0.025	-0.050
00:00:05.114	-0.030	-0.050
00:00:05.116	-0.025	-0.050
00:00:05.118	-0.060	-0.045
00:00:05.120	-0.075	-0.045
00:00:05.122	-0.070	-0.045
00:00:05.124	-0.060	-0.045
00:00:05.126	-0.050	-0.045
00:00:05.128	-0.050	-0.045
00:00:05.130	-0.030	-0.045
00:00:05.132	-0.030	-0.045
00:00:05.134	-0.040	-0.040
00:00:05.136	-0.050	-0.040
00:00:05.138	-0.050	-0.035
00:00:05.140	-0.060	-0.035
00:00:05.142	-0.050	-0.030
00:00:05.144	-0.045	-0.030
00:00:05.146	-0.030	-0.030
00:00:05.148	-0.015	-0.030
00:00:05.150	-0.010	-0.030
00:00:05.152	-0.030	-0.030
00:00:05.154	-0.035	-0.030
00:00:05.156	-0.035	-0.030
00:00:05.158	-0.040	-0.030
00:00:05.160	-0.040	-0.025
00:00:05.162	-0.030	-0.020
00:00:05.164	-0.015	-0.015
00:00:05.166	-0.010	-0.010
00:00:05.168	-0.005	-0.005
00:00:05.170	0.010	-0.005
00:00:05.172	0.005	0.000
00:00:05.174	-0.020	0.000
00:00:05.176	-0.030	0.000
00:00:05.178	-0.040	0.000
00:00:05.180	-0.045	0.000
00:00:05.182	-0.045	0.000
00:00:05.184	-0.020	0.000
00:00:05.186	-0.010	0.000
00:00:05.188	0.005	0.005
00:00:05.190	0.020	0.005
00:00:05.192	0.015	0.010
00:00:05.194	0.000	0.015
00:00:05.196	-0.005	0.015
00:00:05.198	-0.015	0.020
00:00:05.200	-0.010	0.020
00:00:05.202	0.005	0.020
00:00:05.204	0.015	0.025
00:00:05.206	0.020	0.025
00:00:05.208	0.030	0.025
00:00:05.210	0.050	0.025
00:00:05.212	0.035	0.030
00:00:05.214	0.020	0.035
00:00:05.216	0.025	0.040
00:00:05.218	0.030	0.045
00:00:05.220	0.030	0.050
00:00:05.222	0.050	0.055
00:00:05.224	0.060	0.060
00:00:05.226	0.080	0.065
00:00:05.228	0.085	0.070
00:00:05.230	0.110	0.075
00:00:05.232	0.100	0.080
00:00:05.234	0.080	0.085
00:00:05.236	0.075	0.090
00:00:05.238	0.070	0.095
00:00:05.240	0.080	0.100
00:00:05.242	0.095	0.105
00:00:05.244	0.115	0.115
00:00:05.246	0.125	0.120
00:00:05.248	0.150	0.130
00:00:05.250	0.160	0.135
00:00:05.252	0.160	0.145
00:00:05.254	0.160	0.150
00:00:05.256	0.145	0.160
00:00:05.258	0.145	0.165
00:00:05.260	0.135	0.170
00:00:05.262	0.160	0.175
00:00:05.264	0.175	0.175
00:00:05.266	0.185	0.180
00:00:05.268	0.190	0.185
00:00:05.270	0.195	0.185
00:00:05.272	0.190	0.185
00:00:05.274	0.185	0.185
00:00:05.276	0.175	0.185
00:00:05.278	0.170	0.185
00:00:05.280	0.165	0.185
00:00:05.282	0.180	0.185
00:00:05.284	0.175	0.185
00:00:05.286	0.175	0.185
00:00:05.288	0.170	0.185
00:00:05.290	0.175	0.180
00:00:05.292	0.155	0.180
00:00:05.294	0.145	0.180
00:00:05.296	0.130	0.175
00:00:05.298	0.115	0.170
00:00:05.300	0.105	0.165
00:00:05.302	0.110	0.155
00:00:05.304	0.115	0.145
00:00:05.306	0.110	0.135
00:00:05.308	0.110	0.125
00:00:05.310	0.105	0.115
00:00:05.312	0.080	0.105
00:00:05.314	0.065	0.100
00:00:05.316	0.045	0.090
00:00:05.318	0.015	0.080
00:00:05.320	0.010	0.070
00:00:05.322	0.015	0.060
00:00:05.324	0.015	0.050
00:00:05.326	0.015	0.035
00:00:05.328	0.000	0.025
00:00:05.330	0.015	0.015
00:00:05.332	0.015	0.005
00:00:05.334	-0.020	0.000
00:00:05.336	-0.035	-0.005
00:00:05.338	-0.045	-0.005
00:00:05.340	-0.040	-0.005
00:00:05.342	-0.040	-0.005
00:00:05.344	-0.035	-0.005
00:00:05.346	-0.040	-0.005
00:00:05.348	-0.025	-0.010
00:00:05.350	-0.020	-0.015
00:00:05.352	-0.045	-0.015
00:00:05.354	-0.050	-0.020
00:00:05.356	-0.065	-0.025
00:00:05.358	-0.070	-0.030
00:00:05.360	-0.065	-0.035
00:00:05.362	-0.045	-0.035
00:00:05.364	-0.045	-0.035
00:00:05.366	-0.055	-0.035
00:00:05.368	-0.045	-0.030
00:00:05.370	-0.045	-0.030
00:00:05.372	-0.055	-0.025
00:00:05.374	-0.070	-0.025
00:00:05.376	-0.080	-0.025
00:00:05.378	-0.085	-0.025
00:00:05.380	-0.085	-0.030
00:00:05.382	-0.085	-0.035
00:00:05.384	-0.060	-0.040
00:00:05.386	-0.065	-0.045
00:00:05.388	-0.045	-0.050
00:00:05.390	-0.050	-0.055
00:00:05.392	-0.060	-0.060
00:00:05.394	-0.075	-0.065
00:00:05.396	-0.090	-0.065
00:00:05.398	-0.085	-0.060
00:00:05.400	-0.070	-0.060
00:00:05.402	-0.065	-0.055
00:00:05.404	-0.060	-0.050
00:00:05.406	-0.040	-0.050
00:00:05.408	-0.045	-0.045
00:00:05.410	-0.050	-0.040
00:00:05.412	-0.055	-0.040
00:00:05.414	-0.060	-0.035
00:00:05.416	-0.070	-0.035
00:00:05.418	-0.080	-0.030
00:00:05.420	-0.075	-0.030
00:00:05.422	-0.060	-0.030
00:00:05.424	-0.065	-0.030
00:00:05.426	-0.050	-0.030
00:00:05.428	-0.030	-0.035
00:00:05.430	-0.040	-0.035
00:00:05.432	-0.055	-0.040
00:00:05.434	-0.055	-0.040
00:00:05.436	-0.055	-0.040
00:00:05.438	-0.060	-0.040
00:00:05.440	-0.060	-0.035
00:00:05.442	-0.045	-0.035
00:00:05.444	-0.025	-0.030
00:00:05.446	-0.020	-0.025
00:00:05.448	-0.010	-0.020
00:00:05.450	-0.025	-0.015
00:00:05.452	-0.055	-0.015
00:00:05.454	-0.060	-0.015
00:00:05.456	-0.065	-0.010
00:00:05.458	-0.065	-0.010
00:00:05.460	-0.055	-0.010
00:00:05.462	-0.045	-0.010
00:00:05.464	-0.035	-0.010
00:00:05.466	-0.025	-0.010
00:00:05.468	-0.025	-0.010
00:00:05.470	-0.035	-0.010
00:00:05.472	-0.050	-0.010
00:00:05.474	-0.045	-0.015
00:00:05.476	-0.050	-0.020
00:00:05.478	-0.055	-0.020
00:00:05.480	-0.050	-0.025
00:00:05.482	-0.040	-0.025
00:00:05.484	-0.025	-0.030
00:00:05.486	-0.020	-0.030
00:00:05.488	-0.015	-0.025
00:00:05.490	-0.020	-0.025
00:00:05.492	-0.035	-0.025
00:00:05.494	-0.035	-0.025
00:00:05.496	-0.045	-0.025
00:00:05.498	-0.055	-0.025
00:00:05.500	-0.045	-0.025
00:00:05.502	-0.035	-0.030
00:00:05.504	-0.035	-0.030
00:00:05.506	-0.030	-0.035
00:00:05.508	-0.025	-0.035
00:00:05.510	-0.030	-0.035
00:00:05.512	-0.045	-0.035
00:00:05.514	-0.040	-0.035
00:00:05.516	-0.050	-0.030
00:00:05.518	-0.055	-0.025
00:00:05.520	-0.060	-0.020
00:00:05.522	-0.040	-0.020
00:00:05.524	-0.030	-0.015
00:00:05.526	-0.030	-0.015
00:00:05.528	-0.030	-0.015
00:00:05.530	-0.050	-0.015
00:00:05.532	-0.055	-0.015
00:00:05.534	-0.060	-0.015
00:00:05.536	-0.060	-0.020
00:00:05.538	-0.070	-0.020
00:00:05.540	-0.060	-0.025
00:00:05.542	-0.050	-0.025
00:00:05.544	-0.045	-0.030
00:00:05.546	-0.040	-0.030
00:00:05.548	-0.030	-0.030
00:00:05.550	-0.040	-0.035
00:00:05.552	-0.060	-0.035
00:00:05.554	-0.060	-0.040
00:00:05.556	-0.065	-0.040
00:00:05.558	-0.070	-0.040
00:00:05.560	-0.065	-0.040
00:00:05.562	-0.055	-0.040
00:00:05.564	-0.045	-0.040
00:00:05.566	-0.045	-0.040
00:00:05.568	-0.045	-0.035
00:00:05.570	-0.055	-0.035
00:00:05.572	-0.050	-0.030
00:00:05.574	-0.055	-0.030
00:00:05.576	-0.070	-0.030
00:00:05.578	-0.070	-0.030
00:00:05.580	-0.065	-0.030
00:00:05.582	-0.060	-0.035
00:00:05.584	-0.045	-0.040
00:00:05.586	-0.040	-0.040
00:00:05.588	-0.050	-0.045
00:00:05.590	-0.055	-0.045
00:00:05.592	-0.050	-0.045
00:00:05.594	-0.060	-0.040
00:00:05.596	-0.070	-0.040
00:00:05.598	-0.070	-0.035
00:00:05.600	-0.060	-0.035
00:00:05.602	-0.055	-0.035
00:00:05.604	-0.055	-0.040
00:00:05.606	-0.045	-0.045
00:00:05.608	-0.055	-0.055
00:00:05.610	-0.065	-0.060
00:00:05.612	-0.070	-0.065
00:00:05.614	-0.065	-0.065
00:00:05.616	-0.075	-0.065
00:00:05.618	-0.085	-0.065
00:00:05.620	-0.070	-0.060
00:00:05.622	-0.060	-0.055
00:00:05.624	-0.050	-0.050
00:00:05.626	-0.050	-0.045
00:00:05.628	-0.045	-0.045
00:00:05.630	-0.055	-0.045
00:00:05.632	-0.065	-0.045
00:00:05.634	-0.055	-0.045
00:00:05.636	-0.065	-0.045
00:00:05.638	-0.070	-0.050
00:00:05.640	-0.055	-0.050
00:00:05.642	-0.055	-0.050
00:00:05.644	-0.060	-0.050
00:00:05.646	-0.040	-0.050
00:00:05.648	-0.030	-0.050
00:00:05.650	-0.050	-0.050
00:00:05.652	-0.065	-0.050
00:00:05.654	-0.085	-0.050
00:00:05.656	-0.065	-0.050
00:00:05.658	-0.070	-0.050
00:00:05.660	-0.060	-0.055
00:00:05.662	-0.040	-0.055
00:00:05.664	-0.045	-0.055
00:00:05.666	-0.045	-0.055
00:00:05.668	-0.040	-0.055
00:00:05.670	-0.055	-0.055
00:00:05.672	-0.065	-0.055
00:00:05.674	-0.080	-0.055
00:00:05.676	-0.090	-0.055
00:00:05.678	-0.080	-0.050
00:00:05.680	-0.065	-0.050
00:00:05.682	-0.050	-0.045
00:00:05.684	-0.050	-0.045
00:00:05.686	-0.050	-0.045
00:00:05.688	-0.055	-0.045
00:00:05.690	-0.070	-0.050
00:00:05.692	-0.060	-0.050
00:00:05.694	-0.065	-0.055
00:00:05.696	-0.065	-0.055
00:00:05.698	-0.080	-0.060
00:00:05.700	-0.065	-0.060
00:00:05.702	-0.055	-0.060
00:00:05.704	-0.045	-0.060
00:00:05.706	-0.045	-0.060
00:00:05.708	-0.045	-0.065
00:00:05.710	-0.055	-0.065
00:00:05.712	-0.065	-0.065
00:00:05.714	-0.065	-0.070
00:00:05.716	-0.075	-0.070
00:00:05.718	-0.075	-0.070
00:00:05.720	-0.065	-0.075
00:00:05.722	-0.040	-0.070
00:00:05.724	-0.040	-0.070
00:00:05.726	-0.035	-0.065
00:00:05.728	-0.040	-0.060
00:00:05.730	-0.045	-0.060
00:00:05.732	-0.060	-0.055
00:00:05.734	-0.055	-0.055
00:00:05.736	-0.075	-0.060
00:00:05.738	-0.070	-0.060
00:00:05.740	-0.055	-0.065
00:00:05.742	-0.035	-0.075
00:00:05.744	-0.045	-0.080
00:00:05.746	-0.045	-0.085
00:00:05.748	-0.055	-0.090
00:00:05.750	-0.065	-0.090
00:00:05.752	-0.070	-0.085
00:00:05.754	-0.075	-0.080
00:00:05.756	-0.090	-0.075
00:00:05.758	-0.070	-0.070
00:00:05.760	-0.055	-0.065
00:00:05.762	-0.050	-0.060
00:00:05.764	-0.040	-0.060
00:00:05.766	-0.040	-0.065
00:00:05.768	-0.040	-0.065
00:00:05.770	-0.065	-0.070
00:00:05.772	-0.060	-0.070
00:00:05.774	-0.085	-0.070
00:00:05.776	-0.075	-0.070
00:00:05.778	-0.075	-0.070
00:00:05.780	-0.050	-0.065
00:00:05.782	-0.030	-0.060
00:00:05.784	-0.010	-0.055
00:00:05.786	0.000	-0.055
00:00:05.788	-0.015	-0.055
00:00:05.790	-0.025	-0.055
00:00:05.792	-0.040	-0.055
00:00:05.794	-0.050	-0.050
00:00:05.796	-0.045	-0.050
00:00:05.798	-0.035	-0.050
00:00:05.800	-0.020	-0.045
00:00:05.802	-0.010	-0.040
00:00:05.804	0.000	-0.035
00:00:05.806	0.020	-0.030
00:00:05.808	-0.010	-0.025
00:00:05.810	-0.020	-0.020
00:00:05.812	-0.010	-0.020
00:00:05.814	-0.010	-0.020
00:00:05.816	-0.015	-0.020
00:00:05.818	0.000	-0.020
00:00:05.820	0.025	-0.020
00:00:05.822	0.030	-0.015
00:00:05.824	0.040	-0.005
00:00:05.826	0.040	0.000
00:00:05.828	0.050	0.015
00:00:05.830	0.055	0.025
00:00:05.832	0.070	0.035
00:00:05.834	0.070	0.045
00:00:05.836	0.075	0.055
00:00:05.838	0.085	0.065
00:00:05.840	0.105	0.070
00:00:05.842	0.120	0.075
00:00:05.844	0.130	0.080
00:00:05.846	0.135	0.085
00:00:05.848	0.115	0.090
00:00:05.850	0.110	0.090
00:00:05.852	0.100	0.095
00:00:05.854	0.085	0.100
00:00:05.856	0.080	0.100
00:00:05.858	0.100	0.100
00:00:05.860	0.100	0.100
00:00:05.862	0.110	0.095
00:00:05.864	0.105	0.090
00:00:05.866	0.115	0.085
00:00:05.868	0.105	0.080
00:00:05.870	0.105	0.075
00:00:05.872	0.090	0.075
00:00:05.874	0.095	0.075
00:00:05.876	0.080	0.075
00:00:05.878	0.085	0.080
00:00:05.880	0.105	0.085
00:00:05.882	0.105	0.085
00:00:05.884	0.120	0.090
00:00:05.886	0.120	0.090
00:00:05.888	0.110	0.090
00:00:05.890	0.090	0.090
00:00:05.892	0.090	0.090
00:00:05.894	0.080	0.090
00:00:05.896	0.065	0.085
00:00:05.898	0.075	0.085
00:00:05.900	0.090	0.085
00:00:05.902	0.095	0.085
00:00:05.904	0.095	0.080
00:00:05.906	0.120	0.080
00:00:05.908	0.100	0.080
00:00:05.910	0.090	0.075
00:00:05.912	0.100	0.075
00:00:05.914	0.085	0.070
00:00:05.916	0.070	0.070
00:00:05.918	0.070	0.070
00:00:05.920	0.085	0.070
00:00:05.922	0.100	0.070
00:00:05.924	0.100	0.070
00:00:05.926	0.090	0.070
00:00:05.928	0.100	0.070
00:00:05.930	0.085	0.070
00:00:05.932	0.085	0.070
00:00:05.934	0.070	0.065
00:00:05.936	0.070	0.065
00:00:05.938	0.075	0.060
00:00:05.940	0.075	0.055
00:00:05.942	0.070	0.055
00:00:05.944	0.085	0.050
00:00:05.946	0.070	0.045
00:00:05.948	0.070	0.040
00:00:05.950	0.055	0.035
00:00:05.952	0.045	0.030
00:00:05.954	0.030	0.030
00:00:05.956	0.030	0.030
00:00:05.958	0.050	0.040
00:00:05.960	0.080	0.060
00:00:05.962	0.140	0.085
00:00:05.964	0.215	0.130
00:00:05.966	0.260	0.180
00:00:05.968	0.305	0.250
00:00:05.970	0.365	0.325
00:00:05.972	0.415	0.415
00:00:05.974	0.495	0.505
00:00:05.976	0.595	0.595
00:00:05.978	0.730	0.675
00:00:05.980	0.850	0.740
00:00:05.982	0.865	0.780
00:00:05.984	0.860	0.795
00:00:05.986	0.810	0.775
00:00:05.988	0.730	0.725
00:00:05.990	0.635	0.645
00:00:05.992	0.545	0.545
00:00:05.994	0.425	0.430
00:00:05.996	0.315	0.310
00:00:05.998	0.205	0.195
00:00:06.000	0.090	0.100
00:00:06.002	0.010	0.030
00:00:06.004	0.010	-0.015
00:00:06.006	0.040	-0.035
00:00:06.008	0.030	-0.030
00:00:06.010	0.040	-0.015
00:00:06.012	0.050	0.010
00:00:06.014	0.070	0.035
00:00:06.016	0.090	0.060
00:00:06.018	0.115	0.075
00:00:06.020	0.120	0.085
00:00:06.022	0.130	0.085
00:00:06.024	0.130	0.085
00:00:06.026	0.120	0.085
00:00:06.028	0.110	0.080
00:00:06.030	0.105	0.080
00:00:06.032	0.095	0.085
00:00:06.034	0.085	0.085
00:00:06.036	0.090	0.085
00:00:06.038	0.100	0.090
00:00:06.040	0.105	0.085
00:00:06.042	0.110	0.085
00:00:06.044	0.125	0.080
00:00:06.046	0.125	0.075
00:00:06.048	0.110	0.075
00:00:06.050	0.105	0.070
00:00:06.052	0.105	0.065
00:00:06.054	0.085	0.065
00:00:06.056	0.090	0.065
00:00:06.058	0.105	0.065
00:00:06.060	0.105	0.060
00:00:06.062	0.110	0.060
00:00:06.064	0.115	0.060
00:00:06.066	0.120	0.060
00:00:06.068	0.105	0.060
00:00:06.070	0.095	0.060
00:00:06.072	0.095	0.065
00:00:06.074	0.085	0.065
00:00:06.076	0.095	0.070
00:00:06.078	0.110	0.070
00:00:06.080	0.120	0.075
00:00:06.082	0.125	0.075
00:00:06.084	0.135	0.075
00:00:06.086	0.145	0.075
00:00:06.088	0.130	0.075
00:00:06.090	0.110	0.075
00:00:06.092	0.105	0.075
00:00:06.094	0.110	0.075
00:00:06.096	0.115	0.075
00:00:06.098	0.130	0.080
00:00:06.100	0.125	0.085
00:00:06.102	0.145	0.090
00:00:06.104	0.160	0.095
00:00:06.106	0.150	0.100
00:00:06.108	0.135	0.105
00:00:06.110	0.120	0.105
00:00:06.112	0.120	0.105
00:00:06.114	0.120	0.105
00:00:06.116	0.120	0.105
00:00:06.118	0.135	0.105
00:00:06.120	0.145	0.105
00:00:06.122	0.165	0.105
00:00:06.124	0.175	0.105
00:00:06.126	0.165	0.110
00:00:06.128	0.160	0.110
00:00:06.130	0.165	0.115
00:00:06.132	0.165	0.120
00:00:06.134	0.150	0.120
00:00:06.136	0.145	0.120
00:00:06.138	0.155	0.120
00:00:06.140	0.155	0.120
00:00:06.142	0.155	0.120
00:00:06.144	0.160	0.120
00:00:06.146	0.145	0.120
00:00:06.148	0.165	0.120
00:00:06.150	0.175	0.120
00:00:06.152	0.165	0.125
00:00:06.154	0.155	0.130
00:00:06.156	0.175	0.140
00:00:06.158	0.190	0.145
00:00:06.160	0.200	0.150
00:00:06.162	0.225	0.160
00:00:06.164	0.220	0.165
00:00:06.166	0.230	0.170
00:00:06.168	0.230	0.175
00:00:06.170	0.240	0.185
00:00:06.172	0.230	0.190
00:00:06.174	0.225	0.200
00:00:06.176	0.245	0.205
00:00:06.178	0.255	0.215
00:00:06.180	0.260	0.220
00:00:06.182	0.290	0.230
00:00:06.184	0.285	0.235
00:00:06.186	0.270	0.240
00:00:06.188	0.265	0.245
00:00:06.190	0.295	0.250
00:00:06.192	0.315	0.255
00:00:06.194	0.300	0.255
00:00:06.196	0.300	0.260
00:00:06.198	0.300	0.260
00:00:06.200	0.310	0.265
00:00:06.202	0.325	0.270
00:00:06.204	0.320	0.270
00:00:06.206	0.325	0.275
00:00:06.208	0.315	0.275
00:00:06.210	0.315	0.280
00:00:06.212	0.305	0.280
00:00:06.214	0.300	0.285
00:00:06.216	0.305	0.285
00:00:06.218	0.315	0.285
00:00:06.220	0.310	0.285
00:00:06.222	0.310	0.280
00:00:06.224	0.305	0.275
00:00:06.226	0.295	0.270
00:00:06.228	0.285	0.260
00:00:06.230	0.270	0.245
00:00:06.232	0.240	0.235
00:00:06.234	0.225	0.220
00:00:06.236	0.220	0.210
00:00:06.238	0.220	0.195
00:00:06.240	0.220	0.185
00:00:06.242	0.210	0.175
00:00:06.244	0.195	0.165
00:00:06.246	0.165	0.150
00:00:06.248	0.150	0.140
00:00:06.250	0.140	0.125
00:00:06.252	0.135	0.110
00:00:06.254	0.100	0.095
00:00:06.256	0.100	0.085
00:00:06.258	0.095	0.070
00:00:06.260	0.120	0.065
00:00:06.262	0.105	0.055
00:00:06.264	0.100	0.050
00:00:06.266	0.080	0.045
00:00:06.268	0.050	0.040
00:00:06.270	0.035	0.035
00:00:06.272	0.025	0.025
00:00:06.274	0.015	0.015
00:00:06.276	0.005	0.005
00:00:06.278	0.020	-0.010
00:00:06.280	0.020	-0.020
00:00:06.282	0.020	-0.030
00:00:06.284	0.030	-0.035
00:00:06.286	0.015	-0.040
00:00:06.288	-0.010	-0.045
00:00:06.290	-0.035	-0.045
00:00:06.292	-0.030	-0.045
00:00:06.294	-0.020	-0.040
00:00:06.296	-0.015	-0.045
00:00:06.298	-0.010	-0.045
00:00:06.300	0.000	-0.045
00:00:06.302	0.005	-0.050
00:00:06.304	0.005	-0.055
00:00:06.306	-0.020	-0.060
00:00:06.308	-0.030	-0.060
00:00:06.310	-0.045	-0.060
00:00:06.312	-0.040	-0.060
00:00:06.314	-0.035	-0.060
00:00:06.316	-0.030	-0.060
00:00:06.318	-0.030	-0.060
00:00:06.320	-0.015	-0.060
00:00:06.322	-0.015	-0.065
00:00:06.324	-0.010	-0.070
00:00:06.326	-0.035	-0.070
00:00:06.328	-0.045	-0.075
00:00:06.330	-0.045	-0.080
00:00:06.332	-0.055	-0.080
00:00:06.334	-0.055	-0.080
00:00:06.336	-0.030	-0.080
00:00:06.338	-0.025	-0.080
00:00:06.340	-0.025	-0.075
00:00:06.342	-0.030	-0.075
00:00:06.344	-0.040	-0.070
00:00:06.346	-0.055	-0.070
00:00:06.348	-0.065	-0.070
00:00:06.350	-0.070	-0.070
00:00:06.352	-0.075	-0.075
00:00:06.354	-0.070	-0.075
00:00:06.356	-0.055	-0.075
00:00:06.358	-0.035	-0.075
00:00:06.360	-0.030	-0.075
00:00:06.362	-0.025	-0.075
00:00:06.364	-0.040	-0.075
00:00:06.366	-0.055	-0.075
00:00:06.368	-0.070	-0.080
00:00:06.370	-0.090	-0.085
00:00:06.372	-0.085	-0.085
00:00:06.374	-0.065	-0.090
00:00:06.376	-0.060	-0.095
00:00:06.378	-0.045	-0.095
00:00:06.380	-0.045	-0.100
00:00:06.382	-0.030	-0.095
00:00:06.384	-0.040	-0.095
00:00:06.386	-0.055	-0.090
00:00:06.388	-0.060	-0.090
00:00:06.390	-0.060	-0.085
00:00:06.392	-0.070	-0.085
00:00:06.394	-0.055	-0.085
00:00:06.396	-0.050	-0.085
00:00:06.398	-0.035	-0.085
00:00:06.400	-0.030	-0.080
00:00:06.402	-0.025	-0.080
00:00:06.404	-0.030	-0.080
00:00:06.406	-0.045	-0.075
00:00:06.408	-0.050	-0.075
00:00:06.410	-0.060	-0.075
00:00:06.412	-0.065	-0.070
00:00:06.414	-0.055	-0.070
00:00:06.416	-0.045	-0.075
00:00:06.418	-0.035	-0.075
00:00:06.420	-0.035	-0.080
00:00:06.422	-0.030	-0.085
00:00:06.424	-0.050	-0.090
00:00:06.426	-0.050	-0.090
00:00:06.428	-0.045	-0.095
00:00:06.430	-0.050	-0.095
00:00:06.432	-0.055	-0.095
00:00:06.434	-0.040	-0.095
00:00:06.436	-0.030	-0.090
00:00:06.438	-0.045	-0.090
00:00:06.440	-0.040	-0.085
00:00:06.442	-0.055	-0.085
00:00:06.444	-0.075	-0.085
00:00:06.446	-0.095	-0.085
00:00:06.448	-0.100	-0.090
00:00:06.450	-0.095	-0.095
00:00:06.452	-0.090	-0.100
00:00:06.454	-0.080	-0.105
00:00:06.456	-0.080	-0.110
00:00:06.458	-0.050	-0.110
00:00:06.460	-0.045	-0.115
00:00:06.462	-0.050	-0.115
00:00:06.464	-0.050	-0.115
00:00:06.466	-0.070	-0.110
00:00:06.468	-0.080	-0.110
00:00:06.470	-0.085	-0.105
00:00:06.472	-0.095	-0.100
00:00:06.474	-0.075	-0.100
00:00:06.476	-0.065	-0.095
00:00:06.478	-0.050	-0.095
00:00:06.480	-0.045	-0.095
00:00:06.482	-0.050	-0.100
00:00:06.484	-0.055	-0.100
00:00:06.486	-0.075	-0.100
00:00:06.488	-0.080	-0.100
00:00:06.490	-0.090	-0.100
00:00:06.492	-0.090	-0.100
00:00:06.494	-0.080	-0.100
00:00:06.496	-0.080	-0.100
00:00:06.498	-0.075	-0.100
00:00:06.500	-0.075	-0.105
00:00:06.502	-0.060	-0.105
00:00:06.504	-0.075	-0.110
00:00:06.506	-0.090	-0.115
00:00:06.508	-0.090	-0.120
00:00:06.510	-0.085	-0.125
00:00:06.512	-0.095	-0.130
00:00:06.514	-0.095	-0.130
00:00:06.516	-0.080	-0.130
00:00:06.518	-0.085	-0.135
00:00:06.520	-0.090	-0.135
00:00:06.522	-0.080	-0.135
00:00:06.524	-0.085	-0.130
00:00:06.526	-0.100	-0.130
00:00:06.528	-0.130	-0.130
00:00:06.530	-0.115	-0.125
00:00:06.532	-0.115	-0.125
00:00:06.534	-0.095	-0.120
00:00:06.536	-0.090	-0.120
00:00:06.538	-0.090	-0.120
00:00:06.540	-0.080	-0.120
00:00:06.542	-0.080	-0.125
00:00:06.544	-0.085	-0.125
00:00:06.546	-0.080	-0.130
00:00:06.548	-0.105	-0.135
00:00:06.550	-0.115	-0.145
00:00:06.552	-0.115	-0.145
00:00:06.554	-0.110	-0.150
00:00:06.556	-0.095	-0.150
00:00:06.558	-0.090	-0.150
00:00:06.560	-0.080	-0.145
00:00:06.562	-0.080	-0.140
00:00:06.564	-0.085	-0.140
00:00:06.566	-0.095	-0.135
00:00:06.568	-0.100	-0.135
00:00:06.570	-0.115	-0.130
00:00:06.572	-0.120	-0.130
00:00:06.574	-0.110	-0.130
00:00:06.576	-0.115	-0.130
00:00:06.578	-0.095	-0.130
00:00:06.580	-0.080	-0.130
00:00:06.582	-0.080	-0.130
00:00:06.584	-0.085	-0.130
00:00:06.586	-0.100	-0.130
00:00:06.588	-0.115	-0.130
00:00:06.590	-0.105	-0.130
00:00:06.592	-0.115	-0.130
00:00:06.594	-0.110	-0.130
00:00:06.596	-0.115	-0.130
00:00:06.598	-0.100	-0.130
00:00:06.600	-0.100	-0.130
00:00:06.602	-0.095	-0.125
00:00:06.604	-0.095	-0.125
00:00:06.606	-0.110	-0.120
00:00:06.608	-0.110	-0.120
00:00:06.610	-0.120	-0.120
00:00:06.612	-0.105	-0.120
00:00:06.614	-0.085	-0.125
00:00:06.616	-0.090	-0.125
00:00:06.618	-0.080	-0.130
00:00:06.620	-0.095	-0.130
00:00:06.622	-0.095	-0.130
00:00:06.624	-0.100	-0.130
00:00:06.626	-0.125	-0.130
00:00:06.628	-0.120	-0.125
00:00:06.630	-0.125	-0.120
00:00:06.632	-0.100	-0.115
00:00:06.634	-0.090	-0.110
00:00:06.636	-0.105	-0.110
00:00:06.638	-0.105	-0.105
00:00:06.640	-0.085	-0.105
00:00:06.642	-0.080	-0.105
00:00:06.644	-0.090	-0.105
00:00:06.646	-0.110	-0.105
00:00:06.648	-0.100	-0.110
00:00:06.650	-0.105	-0.110
00:00:06.652	-0.120	-0.110
00:00:06.654	-0.100	-0.115
00:00:06.656	-0.095	-0.115
00:00:06.658	-0.085	-0.115
00:00:06.660	-0.085	-0.115
00:00:06.662	-0.085	-0.115
00:00:06.664	-0.095	-0.110
00:00:06.666	-0.110	-0.105
00:00:06.668	-0.110	-0.100
00:00:06.670	-0.115	-0.095
00:00:06.672	-0.110	-0.090
00:00:06.674	-0.075	-0.090
00:00:06.676	-0.070	-0.090
00:00:06.678	-0.065	-0.090
00:00:06.680	-0.055	-0.090
00:00:06.682	-0.045	-0.095
00:00:06.684	-0.070	-0.095
00:00:06.686	-0.080	-0.095
00:00:06.688	-0.080	-0.095
00:00:06.690	-0.080	-0.095
00:00:06.692	-0.085	-0.090
00:00:06.694	-0.080	-0.085
00:00:06.696	-0.070	-0.085
00:00:06.698	-0.070	-0.085
00:00:06.700	-0.055	-0.085
00:00:06.702	-0.045	-0.085
00:00:06.704	-0.055	-0.085
00:00:06.706	-0.065	-0.080
00:00:06.708	-0.065	-0.080
00:00:06.710	-0.065	-0.075
00:00:06.712	-0.045	-0.065
00:00:06.714	-0.050	-0.060
00:00:06.716	-0.025	-0.050
00:00:06.718	-0.040	-0.040
00:00:06.720	-0.010	-0.035
00:00:06.722	-0.035	-0.030
00:00:06.724	-0.040	-0.025
00:00:06.726	-0.050	-0.025
00:00:06.728	-0.055	-0.025
00:00:06.730	-0.065	-0.030
00:00:06.732	-0.055	-0.035
00:00:06.734	-0.045	-0.040
00:00:06.736	-0.045	-0.050
00:00:06.738	-0.050	-0.060
00:00:06.740	-0.035	-0.065
00:00:06.742	-0.075	-0.075
00:00:06.744	-0.095	-0.080
00:00:06.746	-0.095	-0.090
00:00:06.748	-0.100	-0.095
00:00:06.750	-0.115	-0.100
00:00:06.752	-0.125	-0.100
00:00:06.754	-0.110	-0.105
00:00:06.756	-0.080	-0.105
00:00:06.758	-0.105	-0.110
00:00:06.760	-0.110	-0.115
00:00:06.762	-0.115	-0.115
00:00:06.764	-0.115	-0.120
00:00:06.766	-0.110	-0.125
00:00:06.768	-0.110	-0.125
00:00:06.770	-0.130	-0.125
00:00:06.772	-0.120	-0.125
00:00:06.774	-0.100	-0.120
00:00:06.776	-0.120	-0.115
00:00:06.778	-0.095	-0.115
00:00:06.780	-0.095	-0.110
00:00:06.782	-0.110	-0.105
00:00:06.784	-0.110	-0.105
00:00:06.786	-0.115	-0.105
00:00:06.788	-0.125	-0.105
00:00:06.790	-0.135	-0.110
00:00:06.792	-0.135	-0.110
00:00:06.794	-0.115	-0.115
00:00:06.796	-0.110	-0.120
00:00:06.798	-0.115	-0.120
00:00:06.800	-0.105	-0.125
00:00:06.802	-0.125	-0.130
00:00:06.804	-0.135	-0.130
00:00:06.806	-0.130	-0.135
00:00:06.808	-0.130	-0.135
00:00:06.810	-0.135	-0.130
00:00:06.812	-0.130	-0.130
00:00:06.814	-0.110	-0.125
00:00:06.816	-0.105	-0.120
00:00:06.818	-0.100	-0.120
00:00:06.820	-0.110	-0.115
00:00:06.822	-0.115	-0.115
00:00:06.824	-0.135	-0.115
00:00:06.826	-0.135	-0.120
00:00:06.828	-0.135	-0.125
00:00:06.830	-0.135	-0.130
00:00:06.832	-0.155	-0.130
00:00:06.834	-0.145	-0.135
00:00:06.836	-0.130	-0.135
00:00:06.838	-0.130	-0.135
00:00:06.840	-0.140	-0.135
00:00:06.842	-0.160	-0.135
00:00:06.844	-0.185	-0.135
00:00:06.846	-0.175	-0.130
00:00:06.848	-0.165	-0.125
00:00:06.850	-0.125	-0.110
00:00:06.852	-0.060	-0.080
00:00:06.854	-0.005	-0.040
00:00:06.856	0.045	0.015
00:00:06.858	0.105	0.085
00:00:06.860	0.180	0.170
00:00:06.862	0.245	0.255
00:00:06.864	0.330	0.345
00:00:06.866	0.435	0.425
00:00:06.868	0.515	0.490
00:00:06.870	0.555	0.530
00:00:06.872	0.555	0.550
00:00:06.874	0.525	0.540
00:00:06.876	0.480	0.500
00:00:06.878	0.415	0.440
00:00:06.880	0.360	0.355
00:00:06.882	0.255	0.260
00:00:06.884	0.135	0.160
00:00:06.886	-0.010	0.060
00:00:06.888	-0.115	-0.030
00:00:06.890	-0.195	-0.100
00:00:06.892	-0.215	-0.155
00:00:06.894	-0.215	-0.190
00:00:06.896	-0.190	-0.205
00:00:06.898	-0.165	-0.200
00:00:06.900	-0.160	-0.185
00:00:06.902	-0.150	-0.160
00:00:06.904	-0.125	-0.130
00:00:06.906	-0.105	-0.105
00:00:06.908	-0.110	-0.085
00:00:06.910	-0.090	-0.075
00:00:06.912	-0.090	-0.065
00:00:06.914	-0.080	-0.065
00:00:06.916	-0.080	-0.065
00:00:06.918	-0.080	-0.065
00:00:06.920	-0.085	-0.065
00:00:06.922	-0.090	-0.060
00:00:06.924	-0.105	-0.060
00:00:06.926	-0.115	-0.060
00:00:06.928	-0.115	-0.060
00:00:06.930	-0.115	-0.065
00:00:06.932	-0.095	-0.070
00:00:06.934	-0.095	-0.075
00:00:06.936	-0.095	-0.080
00:00:06.938	-0.075	-0.085
00:00:06.940	-0.085	-0.085
00:00:06.942	-0.095	-0.085
00:00:06.944	-0.095	-0.080
00:00:06.946	-0.090	-0.075
00:00:06.948	-0.105	-0.065
00:00:06.950	-0.090	-0.060
00:00:06.952	-0.065	-0.055
00:00:06.954	-0.075	-0.050
00:00:06.956	-0.075	-0.050
00:00:06.958	-0.065	-0.050
00:00:06.960	-0.060	-0.050
00:00:06.962	-0.070	-0.055
00:00:06.964	-0.090	-0.055
00:00:06.966	-0.095	-0.055
00:00:06.968	-0.100	-0.055
00:00:06.970	-0.090	-0.055
00:00:06.972	-0.065	-0.050
00:00:06.974	-0.060	-0.050
00:00:06.976	-0.055	-0.045
00:00:06.978	-0.030	-0.045
00:00:06.980	-0.055	-0.045
00:00:06.982	-0.070	-0.045
00:00:06.984	-0.070	-0.045
00:00:06.986	-0.075	-0.045
00:00:06.988	-0.070	-0.045
00:00:06.990	-0.070	-0.045
00:00:06.992	-0.060	-0.045
00:00:06.994	-0.055	-0.045
00:00:06.996	-0.050	-0.040
00:00:06.998	-0.040	-0.040
00:00:07.000	-0.055	-0.035
00:00:07.002	-0.050	-0.030
00:00:07.004	-0.045	-0.020
00:00:07.006	-0.055	-0.015
00:00:07.008	-0.060	-0.010
00:00:07.010	-0.040	-0.005
00:00:07.012	-0.030	0.000
00:00:07.014	-0.030	0.000
00:00:07.016	-0.020	0.005
00:00:07.018	-0.020	0.005
00:00:07.020	-0.035	0.010
00:00:07.022	-0.035	0.010
00:00:07.024	-0.035	0.015
00:00:07.026	-0.035	0.020
00:00:07.028	-0.040	0.020
00:00:07.030	-0.035	0.025
00:00:07.032	-0.005	0.030
00:00:07.034	0.020	0.030
00:00:07.036	0.020	0.035
00:00:07.038	0.020	0.035
00:00:07.040	0.010	0.030
00:00:07.042	0.015	0.030
00:00:07.044	0.010	0.030
00:00:07.046	0.010	0.030
00:00:07.048	0.015	0.035
00:00:07.050	0.020	0.040
00:00:07.052	0.025	0.045
00:00:07.054	0.020	0.055
00:00:07.056	0.035	0.065
00:00:07.058	0.055	0.075
00:00:07.060	0.065	0.085
00:00:07.062	0.055	0.095
00:00:07.064	0.060	0.100
00:00:07.066	0.060	0.110
00:00:07.068	0.070	0.115
00:00:07.070	0.100	0.120
00:00:07.072	0.115	0.125
00:00:07.074	0.115	0.130
00:00:07.076	0.105	0.135
00:00:07.078	0.125	0.140
00:00:07.080	0.125	0.145
00:00:07.082	0.115	0.150
00:00:07.084	0.105	0.155
00:00:07.086	0.115	0.160
00:00:07.088	0.110	0.160
00:00:07.090	0.125	0.160
00:00:07.092	0.125	0.160
00:00:07.094	0.130	0.160
00:00:07.096	0.145	0.160
00:00:07.098	0.150	0.160
00:00:07.100	0.135	0.160
00:00:07.102	0.130	0.165
00:00:07.104	0.130	0.165
00:00:07.106	0.115	0.170
00:00:07.108	0.110	0.175
00:00:07.110	0.130	0.175
00:00:07.112	0.135	0.180
00:00:07.114	0.135	0.175
00:00:07.116	0.130	0.175
00:00:07.118	0.130	0.170
00:00:07.120	0.115	0.165
00:00:07.122	0.085	0.155
00:00:07.124	0.075	0.150
00:00:07.126	0.065	0.140
00:00:07.128	0.060	0.130
00:00:07.130	0.055	0.120
00:00:07.132	0.050	0.110
00:00:07.134	0.030	0.100
00:00:07.136	0.040	0.090
00:00:07.138	0.030	0.080
00:00:07.140	0.020	0.070
00:00:07.142	-0.015	0.060
00:00:07.144	-0.025	0.055
00:00:07.146	-0.030	0.050
00:00:07.148	-0.030	0.045
00:00:07.150	-0.030	0.040
00:00:07.152	-0.030	0.035
00:00:07.154	-0.030	0.030
00:00:07.156	-0.020	0.025
00:00:07.158	-0.040	0.020
00:00:07.160	-0.050	0.010
00:00:07.162	-0.075	0.000
00:00:07.164	-0.085	-0.010
00:00:07.166	-0.080	-0.020
00:00:07.168	-0.080	-0.025
00:00:07.170	-0.065	-0.030
00:00:07.172	-0.070	-0.035
00:00:07.174	-0.065	-0.040
00:00:07.176	-0.055	-0.040
00:00:07.178	-0.075	-0.040
00:00:07.180	-0.090	-0.040
00:00:07.182	-0.115	-0.035
00:00:07.184	-0.100	-0.035
00:00:07.186	-0.110	-0.035
00:00:07.188	-0.115	-0.040
00:00:07.190	-0.105	-0.040
00:00:07.192	-0.095	-0.040
00:00:07.194	-0.090	-0.045
00:00:07.196	-0.075	-0.050
00:00:07.198	-0.060	-0.050
00:00:07.200	-0.095	-0.050
00:00:07.202	-0.100	-0.055
00:00:07.204	-0.125	-0.055
00:00:07.206	-0.115	-0.055
00:00:07.208	-0.115	-0.055
00:00:07.210	-0.100	-0.055
00:00:07.212	-0.100	-0.055
00:00:07.214	-0.100	-0.050
00:00:07.216	-0.090	-0.050
00:00:07.218	-0.090	-0.050
00:00:07.220	-0.100	-0.045
00:00:07.222	-0.110	-0.045
00:00:07.224	-0.105	-0.045
00:00:07.226	-0.115	-0.045
00:00:07.228	-0.105	-0.040
00:00:07.230	-0.090	-0.040
00:00:07.232	-0.080	-0.040
00:00:07.234	-0.075	-0.040
00:00:07.236	-0.075	-0.040
00:00:07.238	-0.095	-0.040
00:00:07.240	-0.100	-0.040
00:00:07.242	-0.105	-0.040
00:00:07.244	-0.120	-0.035
00:00:07.246	-0.120	-0.035
00:00:07.248	-0.115	-0.035
00:00:07.250	-0.095	-0.035
00:00:07.252	-0.095	-0.040
00:00:07.254	-0.090	-0.040
00:00:07.256	-0.070	-0.040
00:00:07.258	-0.095	-0.045
00:00:07.260	-0.095	-0.045
00:00:07.262	-0.090	-0.045
00:00:07.264	-0.105	-0.045
00:00:07.266	-0.110	-0.045
00:00:07.268	-0.090	-0.040
00:00:07.270	-0.070	-0.035
00:00:07.272	-0.070	-0.035
00:00:07.274	-0.070	-0.030
00:00:07.276	-0.070	-0.025
00:00:07.278	-0.085	-0.025
00:00:07.280	-0.100	-0.020
00:00:07.282	-0.100	-0.020
00:00:07.284	-0.100	-0.020
00:00:07.286	-0.110	-0.025
00:00:07.288	-0.110	-0.025
00:00:07.290	-0.090	-0.030
00:00:07.292	-0.090	-0.035
00:00:07.294	-0.070	-0.035
00:00:07.296	-0.070	-0.040
00:00:07.298	-0.075	-0.040
00:00:07.300	-0.095	-0.040
00:00:07.302	-0.110	-0.040
00:00:07.304	-0.100	-0.035
00:00:07.306	-0.100	-0.035
00:00:07.308	-0.095	-0.025
00:00:07.310	-0.095	-0.020
00:00:07.312	-0.080	-0.015
00:00:07.314	-0.075	-0.015
00:00:07.316	-0.050	-0.015
00:00:07.318	-0.065	-0.015
00:00:07.320	-0.085	-0.015
00:00:07.322	-0.090	-0.020
00:00:07.324	-0.110	-0.025
00:00:07.326	-0.115	-0.030
00:00:07.328	-0.100	-0.030
00:00:07.330	-0.095	-0.035
00:00:07.332	-0.085	-0.035
00:00:07.334	-0.065	-0.030
00:00:07.336	-0.060	-0.030
00:00:07.338	-0.065	-0.030
00:00:07.340	-0.095	-0.025
00:00:07.342	-0.120	-0.025
00:00:07.344	-0.100	-0.025
00:00:07.346	-0.100	-0.025
00:00:07.348	-0.105	-0.025
00:00:07.350	-0.085	-0.025
00:00:07.352	-0.075	-0.025
00:00:07.354	-0.075	-0.025
00:00:07.356	-0.070	-0.030
00:00:07.358	-0.085	-0.030
00:00:07.360	-0.100	-0.030
00:00:07.362	-0.115	-0.035
00:00:07.364	-0.120	-0.035
00:00:07.366	-0.115	-0.040
00:00:07.368	-0.100	-0.040
00:00:07.370	-0.080	-0.045
00:00:07.372	-0.090	-0.045
00:00:07.374	-0.090	-0.045
00:00:07.376	-0.070	-0.045
00:00:07.378	-0.095	-0.045
00:00:07.380	-0.115	-0.045
00:00:07.382	-0.115	-0.045
00:00:07.384	-0.115	-0.050
00:00:07.386	-0.120	-0.050
00:00:07.388	-0.115	-0.050
00:00:07.390	-0.095	-0.050
00:00:07.392	-0.100	-0.050
00:00:07.394	-0.095	-0.050
00:00:07.396	-0.075	-0.045
00:00:07.398	-0.095	-0.045
00:00:07.400	-0.110	-0.040
00:00:07.402	-0.125	-0.040
00:00:07.404	-0.120	-0.040
00:00:07.406	-0.100	-0.040
00:00:07.408	-0.115	-0.040
00:00:07.410	-0.110	-0.045
00:00:07.412	-0.100	-0.045
00:00:07.414	-0.080	-0.045
00:00:07.416	-0.095	-0.045
00:00:07.418	-0.095	-0.045
00:00:07.420	-0.110	-0.040
00:00:07.422	-0.130	-0.035
00:00:07.424	-0.120	-0.030
00:00:07.426	-0.125	-0.030
00:00:07.428	-0.120	-0.025
00:00:07.430	-0.110	-0.025
00:00:07.432	-0.105	-0.025
00:00:07.434	-0.095	-0.030
00:00:07.436	-0.100	-0.030
00:00:07.438	-0.105	-0.035
00:00:07.440	-0.120	-0.040
00:00:07.442	-0.120	-0.040
00:00:07.444	-0.125	-0.045
00:00:07.446	-0.120	-0.040
00:00:07.448	-0.105	-0.040
00:00:07.450	-0.095	-0.035
00:00:07.452	-0.095	-0.030
00:00:07.454	-0.090	-0.030
00:00:07.456	-0.100	-0.030
00:00:07.458	-0.105	-0.030
00:00:07.460	-0.115	-0.035
00:00:07.462	-0.115	-0.040
00:00:07.464	-0.140	-0.045
00:00:07.466	-0.135	-0.055
00:00:07.468	-0.120	-0.060
00:00:07.470	-0.120	-0.065
00:00:07.472	-0.110	-0.070
00:00:07.474	-0.105	-0.070
00:00:07.476	-0.095	-0.070
00:00:07.478	-0.115	-0.065
00:00:07.480	-0.130	-0.060
00:00:07.482	-0.130	-0.055
00:00:07.484	-0.115	-0.050
00:00:07.486	-0.125	-0.045
00:00:07.488	-0.105	-0.045
00:00:07.490	-0.105	-0.040
00:00:07.492	-0.095	-0.040
00:00:07.494	-0.095	-0.035
00:00:07.496	-0.110	-0.035
00:00:07.498	-0.105	-0.035
00:00:07.500	-0.105	-0.035
00:00:07.502	-0.115	-0.035
00:00:07.504	-0.135	-0.035
00:00:07.506	-0.145	-0.040
00:00:07.508	-0.115	-0.040
00:00:07.510	-0.100	-0.045
00:00:07.512	-0.110	-0.045
00:00:07.514	-0.095	-0.050
00:00:07.516	-0.095	-0.050
00:00:07.518	-0.110	-0.050
00:00:07.520	-0.115	-0.050
00:00:07.522	-0.120	-0.050
00:00:07.524	-0.130	-0.050
00:00:07.526	-0.140	-0.050
00:00:07.528	-0.125	-0.050
00:00:07.530	-0.115	-0.050
00:00:07.532	-0.100	-0.050
00:00:07.534	-0.100	-0.050
00:00:07.536	-0.110	-0.050
00:00:07.538	-0.105	-0.050
00:00:07.540	-0.105	-0.055
00:00:07.542	-0.100	-0.055
00:00:07.544	-0.125	-0.050
00:00:07.546	-0.105	-0.045
00:00:07.548	-0.080	-0.040
00:00:07.550	-0.080	-0.035
00:00:07.552	-0.060	-0.025
00:00:07.554	-0.065	-0.015
00:00:07.556	-0.065	-0.010
00:00:07.558	-0.080	-0.005
00:00:07.560	-0.095	-0.005
00:00:07.562	-0.100	-0.010
00:00:07.564	-0.110	-0.010
00:00:07.566	-0.105	-0.015
00:00:07.568	-0.075	-0.020
00:00:07.570	-0.050	-0.025
00:00:07.572	-0.050	-0.030
00:00:07.574	-0.045	-0.025
00:00:07.576	-0.050	-0.020
00:00:07.578	-0.065	-0.015
00:00:07.580	-0.070	-0.005
00:00:07.582	-0.055	0.005
00:00:07.584	-0.065	0.010
00:00:07.586	-0.055	0.020
00:00:07.588	-0.060	0.020
00:00:07.590	-0.040	0.025
00:00:07.592	-0.035	0.025
00:00:07.594	-0.030	0.020
00:00:07.596	-0.045	0.020
00:00:07.598	-0.060	0.015
00:00:07.600	-0.065	0.015
00:00:07.602	-0.065	0.015
00:00:07.604	-0.075	0.010
00:00:07.606	-0.075	0.010
00:00:07.608	-0.075	0.005
00:00:07.610	-0.075	0.000
00:00:07.612	-0.050	-0.010
00:00:07.614	-0.070	-0.020
00:00:07.616	-0.095	-0.030
00:00:07.618	-0.095	-0.040
00:00:07.620	-0.110	-0.050
00:00:07.622	-0.115	-0.055
00:00:07.624	-0.135	-0.060
00:00:07.626	-0.110	-0.060
00:00:07.628	-0.105	-0.060
00:00:07.630	-0.115	-0.060
00:00:07.632	-0.105	-0.055
00:00:07.634	-0.100	-0.055
00:00:07.636	-0.105	-0.055
00:00:07.638	-0.115	-0.055
00:00:07.640	-0.135	-0.055
00:00:07.642	-0.140	-0.055
00:00:07.644	-0.130	-0.060
00:00:07.646	-0.130	-0.060
00:00:07.648	-0.120	-0.060
00:00:07.650	-0.115	-0.060
00:00:07.652	-0.100	-0.060
00:00:07.654	-0.095	-0.060
00:00:07.656	-0.105	-0.060
00:00:07.658	-0.120	-0.060
00:00:07.660	-0.120	-0.060
00:00:07.662	-0.120	-0.065
00:00:07.664	-0.150	-0.070
00:00:07.666	-0.130	-0.070
00:00:07.668	-0.120	-0.075
00:00:07.670	-0.115	-0.075
00:00:07.672	-0.135	-0.080
00:00:07.674	-0.120	-0.075
00:00:07.676	-0.110	-0.075
00:00:07.678	-0.110	-0.070
00:00:07.680	-0.115	-0.070
00:00:07.682	-0.130	-0.065
00:00:07.684	-0.135	-0.065
00:00:07.686	-0.135	-0.065
00:00:07.688	-0.125	-0.065
00:00:07.690	-0.105	-0.065
00:00:07.692	-0.110	-0.065
00:00:07.694	-0.110	-0.065
00:00:07.696	-0.135	-0.065
00:00:07.698	-0.135	-0.070
00:00:07.700	-0.150	-0.070
00:00:07.702	-0.160	-0.080
00:00:07.704	-0.160	-0.085
00:00:07.706	-0.145	-0.095
00:00:07.708	-0.150	-0.100
00:00:07.710	-0.170	-0.105
00:00:07.712	-0.150	-0.105
00:00:07.714	-0.135	-0.100
00:00:07.716	-0.115	-0.085
00:00:07.718	-0.080	-0.055
00:00:07.720	-0.040	-0.020
00:00:07.722	0.000	0.030
00:00:07.724	0.030	0.090
00:00:07.726	0.095	0.150
00:00:07.728	0.155	0.220
00:00:07.730	0.240	0.290
00:00:07.732	0.345	0.355
00:00:07.734	0.415	0.415
00:00:07.736	0.500	0.460
00:00:07.738	0.485	0.490
00:00:07.740	0.465	0.495
00:00:07.742	0.395	0.485
00:00:07.744	0.350	0.445
00:00:07.746	0.285	0.385
00:00:07.748	0.240	0.305
00:00:07.750	0.175	0.215
00:00:07.752	0.085	0.120
00:00:07.754	-0.025	0.030
00:00:07.756	-0.135	-0.050
00:00:07.758	-0.220	-0.110
00:00:07.760	-0.225	-0.150
00:00:07.762	-0.205	-0.165
00:00:07.764	-0.180	-0.160
00:00:07.766	-0.150	-0.145
00:00:07.768	-0.135	-0.120
00:00:07.770	-0.110	-0.090
00:00:07.772	-0.095	-0.070
00:00:07.774	-0.085	-0.055
00:00:07.776	-0.075	-0.045
00:00:07.778	-0.095	-0.050
00:00:07.780	-0.105	-0.055
00:00:07.782	-0.125	-0.060
00:00:07.784	-0.120	-0.065
00:00:07.786	-0.120	-0.065
00:00:07.788	-0.110	-0.060
00:00:07.790	-0.095	-0.055
00:00:07.792	-0.080	-0.045
00:00:07.794	-0.075	-0.040
00:00:07.796	-0.085	-0.035
00:00:07.798	-0.100	-0.040
00:00:07.800	-0.120	-0.045
00:00:07.802	-0.125	-0.055
00:00:07.804	-0.110	-0.065
00:00:07.806	-0.120	-0.070
00:00:07.808	-0.115	-0.080
00:00:07.810	-0.100	-0.080
00:00:07.812	-0.090	-0.080
00:00:07.814	-0.085	-0.075
00:00:07.816	-0.100	-0.065
00:00:07.818	-0.100	-0.060
00:00:07.820	-0.090	-0.050
00:00:07.822	-0.095	-0.045
00:00:07.824	-0.085	-0.045
00:00:07.826	-0.090	-0.040
00:00:07.828	-0.090	-0.045
00:00:07.830	-0.085	-0.045
00:00:07.832	-0.065	-0.045
00:00:07.834	-0.075	-0.045
00:00:07.836	-0.080	-0.045
00:00:07.838	-0.075	-0.045
00:00:07.840	-0.080	-0.040
00:00:07.842	-0.100	-0.035
00:00:07.844	-0.090	-0.035
00:00:07.846	-0.070	-0.030
00:00:07.848	-0.055	-0.030
00:00:07.850	-0.065	-0.030
00:00:07.852	-0.065	-0.030
00:00:07.854	-0.060	-0.025
00:00:07.856	-0.035	-0.015
00:00:07.858	-0.025	-0.005
00:00:07.860	-0.015	0.005
00:00:07.862	0.000	0.020
00:00:07.864	0.015	0.035
00:00:07.866	0.040	0.050
00:00:07.868	0.040	0.070
00:00:07.870	0.075	0.080
00:00:07.872	0.085	0.090
00:00:07.874	0.085	0.100
00:00:07.876	0.090	0.110
00:00:07.878	0.095	0.115
00:00:07.880	0.070	0.125
00:00:07.882	0.080	0.130
00:00:07.884	0.100	0.135
00:00:07.886	0.100	0.140
00:00:07.888	0.120	0.145
00:00:07.890	0.135	0.145
00:00:07.892	0.145	0.150
00:00:07.894	0.125	0.150
00:00:07.896	0.135	0.155
00:00:07.898	0.130	0.160
00:00:07.900	0.115	0.170
00:00:07.902	0.135	0.175
00:00:07.904	0.145	0.185
00:00:07.906	0.180	0.195
00:00:07.908	0.190	0.205
00:00:07.910	0.175	0.210
00:00:07.912	0.185	0.215
00:00:07.914	0.190	0.220
00:00:07.916	0.180	0.220
00:00:07.918	0.185	0.215
00:00:07.920	0.180	0.215
00:00:07.922	0.185	0.215
00:00:07.924	0.195	0.220
00:00:07.926	0.215	0.225
00:00:07.928	0.210	0.235
00:00:07.930	0.220	0.245
00:00:07.932	0.250	0.260
00:00:07.934	0.255	0.270
00:00:07.936	0.250	0.280
00:00:07.938	0.260	0.290
00:00:07.940	0.245	0.300
00:00:07.942	0.260	0.305
00:00:07.944	0.260	0.310
00:00:07.946	0.285	0.310
00:00:07.948	0.275	0.315
00:00:07.950	0.305	0.315
00:00:07.952	0.305	0.320
00:00:07.954	0.295	0.320
00:00:07.956	0.290	0.325
00:00:07.958	0.270	0.325
00:00:07.960	0.275	0.325
00:00:07.962	0.280	0.325
00:00:07.964	0.285	0.325
00:00:07.966	0.295	0.320
00:00:07.968	0.320	0.320
00:00:07.970	0.290	0.320
00:00:07.972	0.320	0.320
00:00:07.974	0.305	0.320
00:00:07.976	0.300	0.325
00:00:07.978	0.280	0.325
00:00:07.980	0.260	0.325
00:00:07.982	0.270	0.325
00:00:07.984	0.260	0.320
00:00:07.986	0.270	0.315
00:00:07.988	0.270	0.310
00:00:07.990	0.265	0.300
00:00:07.992	0.265	0.290
00:00:07.994	0.240	0.275
00:00:07.996	0.215	0.265
00:00:07.998	0.225	0.255
00:00:08.000	0.210	0.245
00:00:08.002	0.180	0.235
00:00:08.004	0.175	0.230
00:00:08.006	0.170	0.220
00:00:08.008	0.170	0.210
00:00:08.010	0.185	0.200
00:00:08.012	0.160	0.190
00:00:08.014	0.145	0.180
00:00:08.016	0.125	0.170
00:00:08.018	0.115	0.160
00:00:08.020	0.100	0.155
00:00:08.022	0.110	0.150
00:00:08.024	0.105	0.145
00:00:08.026	0.100	0.140
00:00:08.028	0.130	0.135
00:00:08.030	0.110	0.130
00:00:08.032	0.105	0.130
00:00:08.034	0.085	0.125
00:00:08.036	0.070	0.120
00:00:08.038	0.065	0.115
00:00:08.040	0.065	0.115
00:00:08.042	0.060	0.110
00:00:08.044	0.075	0.110
00:00:08.046	0.075	0.110
00:00:08.048	0.070	0.105
00:00:08.050	0.065	0.105
00:00:08.052	0.065	0.105
00:00:08.054	0.060	0.100
00:00:08.056	0.045	0.095
00:00:08.058	0.035	0.090
00:00:08.060	0.035	0.080
00:00:08.062	0.020	0.075
00:00:08.064	0.035	0.070
00:00:08.066	0.050	0.065
00:00:08.068	0.050	0.065
00:00:08.070	0.070	0.065
00:00:08.072	0.070	0.070
00:00:08.074	0.050	0.075
00:00:08.076	0.050	0.080
00:00:08.078	0.040	0.085
00:00:08.080	0.030	0.085
00:00:08.082	0.035	0.085
00:00:08.084	0.050	0.080
00:00:08.086	0.050	0.075
00:00:08.088	0.070	0.070
00:00:08.090	0.080	0.065
00:00:08.092	0.055	0.060
00:00:08.094	0.045	0.060
00:00:08.096	0.040	0.060
00:00:08.098	0.030	0.060
00:00:08.100	0.040	0.065
00:00:08.102	0.020	0.065
00:00:08.104	0.040	0.065
00:00:08.106	0.050	0.065
00:00:08.108	0.050	0.065
00:00:08.110	0.060	0.065
00:00:08.112	0.045	0.065
00:00:08.114	0.035	0.060
00:00:08.116	0.035	0.060
00:00:08.118	0.025	0.060
00:00:08.120	0.025	0.060
00:00:08.122	0.030	0.060
00:00:08.124	0.040	0.060
00:00:08.126	0.050	0.060
00:00:08.128	0.055	0.060
00:00:08.130	0.065	0.055
00:00:08.132	0.050	0.055
00:00:08.134	0.045	0.055
00:00:08.136	0.030	0.055
00:00:08.138	0.020	0.050
00:00:08.140	0.015	0.050
00:00:08.142	0.010	0.050
00:00:08.144	0.015	0.050
00:00:08.146	0.030	0.050
00:00:08.148	0.040	0.050
00:00:08.150	0.050	0.045
00:00:08.152	0.040	0.045
00:00:08.154	0.025	0.045
00:00:08.156	0.020	0.040
00:00:08.158	0.005	0.040
00:00:08.160	0.010	0.040
00:00:08.162	0.010	0.040
00:00:08.164	0.030	0.040
00:00:08.166	0.035	0.040
00:00:08.168	0.045	0.040
00:00:08.170	0.035	0.040
00:00:08.172	0.035	0.035
00:00:08.174	0.015	0.035
00:00:08.176	0.010	0.030
00:00:08.178	0.000	0.030
00:00:08.180	-0.010	0.025
00:00:08.182	-0.005	0.020
00:00:08.184	0.015	0.020
00:00:08.186	0.015	0.015
00:00:08.188	0.010	0.015
00:00:08.190	0.025	0.020
00:00:08.192	0.015	0.020
00:00:08.194	0.005	0.020
00:00:08.196	-0.015	0.025
00:00:08.198	0.010	0.025
00:00:08.200	0.005	0.025
00:00:08.202	-0.005	0.025
00:00:08.204	0.005	0.020
00:00:08.206	0.010	0.015
00:00:08.208	0.020	0.010
00:00:08.210	0.000	0.005
00:00:08.212	0.010	0.000
00:00:08.214	-0.015	-0.005
00:00:08.216	-0.040	-0.005
00:00:08.218	-0.045	-0.010
00:00:08.220	-0.050	-0.010
00:00:08.222	-0.030	-0.010
00:00:08.224	-0.015	-0.005
00:00:08.226	-0.005	-0.005
00:00:08.228	0.010	-0.005
00:00:08.230	-0.030	-0.005
00:00:08.232	0.000	-0.005
00:00:08.234	-0.010	-0.005
00:00:08.236	-0.010	-0.010
00:00:08.238	-0.030	-0.010
00:00:08.240	-0.025	-0.010
00:00:08.242	-0.040	-0.015
00:00:08.244	-0.035	-0.015
00:00:08.246	-0.010	-0.020
00:00:08.248	-0.005	-0.020
00:00:08.250	-0.020	-0.020
00:00:08.252	-0.030	-0.020
00:00:08.254	-0.040	-0.020
00:00:08.256	-0.030	-0.020
00:00:08.258	-0.045	-0.015
00:00:08.260	-0.060	-0.015
00:00:08.262	-0.020	-0.015
00:00:08.264	0.000	-0.015
00:00:08.266	-0.025	-0.015
00:00:08.268	-0.020	-0.020
00:00:08.270	0.015	-0.020
00:00:08.272	-0.035	-0.020
00:00:08.274	-0.040	-0.025
00:00:08.276	-0.060	-0.030
00:00:08.278	-0.050	-0.030
00:00:08.280	-0.035	-0.035
00:00:08.282	-0.050	-0.040
00:00:08.284	-0.035	-0.045
00:00:08.286	-0.050	-0.050
00:00:08.288	-0.040	-0.050
00:00:08.290	-0.030	-0.050
00:00:08.292	-0.030	-0.045
00:00:08.294	-0.050	-0.040
00:00:08.296	-0.045	-0.035
00:00:08.298	-0.060	-0.030
00:00:08.300	-0.080	-0.025
00:00:08.302	-0.045	-0.025
00:00:08.304	-0.040	-0.025
00:00:08.306	-0.045	-0.030
00:00:08.308	-0.040	-0.040
00:00:08.310	-0.030	-0.050
00:00:08.312	-0.065	-0.060
00:00:08.314	-0.065	-0.065
00:00:08.316	-0.055	-0.070
00:00:08.318	-0.070	-0.075
00:00:08.320	-0.075	-0.070
00:00:08.322	-0.070	-0.065
00:00:08.324	-0.055	-0.060
00:00:08.326	-0.055	-0.050
00:00:08.328	-0.060	-0.045
00:00:08.330	-0.050	-0.045
00:00:08.332	-0.065	-0.045
00:00:08.334	-0.075	-0.045
00:00:08.336	-0.075	-0.050
00:00:08.338	-0.085	-0.055
00:00:08.340	-0.095	-0.060
00:00:08.342	-0.080	-0.065
00:00:08.344	-0.070	-0.070
00:00:08.346	-0.070	-0.075
00:00:08.348	-0.065	-0.080
00:00:08.350	-0.075	-0.080
00:00:08.352	-0.075	-0.085
00:00:08.354	-0.080	-0.085
00:00:08.356	-0.075	-0.085
00:00:08.358	-0.100	-0.085
00:00:08.360	-0.085	-0.085
00:00:08.362	-0.080	-0.085
00:00:08.364	-0.075	-0.085
00:00:08.366	-0.055	-0.080
00:00:08.368	-0.060	-0.075
00:00:08.370	-0.080	-0.070
00:00:08.372	-0.090	-0.070
00:00:08.374	-0.105	-0.065
00:00:08.376	-0.110	-0.065
00:00:08.378	-0.110	-0.070
00:00:08.380	-0.100	-0.070
00:00:08.382	-0.075	-0.070
00:00:08.384	-0.065	-0.070
00:00:08.386	-0.055	-0.070
00:00:08.388	-0.050	-0.070
00:00:08.390	-0.055	-0.065
00:00:08.392	-0.075	-0.060
00:00:08.394	-0.065	-0.055
00:00:08.396	-0.060	-0.050
00:00:08.398	-0.065	-0.045
00:00:08.400	-0.055	-0.040
00:00:08.402	-0.040	-0.040
00:00:08.404	-0.045	-0.045
00:00:08.406	-0.040	-0.050
00:00:08.408	-0.045	-0.055
00:00:08.410	-0.050	-0.060
00:00:08.412	-0.070	-0.065
00:00:08.414	-0.080	-0.070
00:00:08.416	-0.080	-0.070
00:00:08.418	-0.065	-0.065
00:00:08.420	-0.025	-0.060
00:00:08.422	-0.030	-0.055
00:00:08.424	-0.030	-0.045
00:00:08.426	-0.030	-0.030
00:00:08.428	0.000	-0.020
00:00:08.430	-0.010	-0.015
00:00:08.432	-0.020	-0.005
00:00:08.434	-0.035	-0.005
00:00:08.436	-0.040	-0.005
00:00:08.438	-0.045	-0.010
00:00:08.440	-0.040	-0.015
00:00:08.442	-0.025	-0.020
00:00:08.444	-0.030	-0.030
00:00:08.446	-0.030	-0.035
00:00:08.448	-0.025	-0.040
00:00:08.450	-0.005	-0.045
00:00:08.452	-0.035	-0.045
00:00:08.454	-0.045	-0.045
00:00:08.456	-0.065	-0.045
00:00:08.458	-0.100	-0.050
00:00:08.460	-0.085	-0.050
00:00:08.462	-0.080	-0.055
00:00:08.464	-0.080	-0.060
00:00:08.466	-0.080	-0.065
00:00:08.468	-0.080	-0.075
00:00:08.470	-0.090	-0.085
00:00:08.472	-0.100	-0.090
00:00:08.474	-0.115	-0.100
00:00:08.476	-0.120	-0.105
00:00:08.478	-0.135	-0.105
00:00:08.480	-0.130	-0.110
00:00:08.482	-0.105	-0.110
00:00:08.484	-0.115	-0.110
00:00:08.486	-0.100	-0.110
00:00:08.488	-0.105	-0.110
00:00:08.490	-0.095	-0.110
00:00:08.492	-0.100	-0.105
00:00:08.494	-0.120	-0.105
00:00:08.496	-0.130	-0.105
00:00:08.498	-0.135	-0.100
00:00:08.500	-0.120	-0.100
00:00:08.502	-0.115	-0.100
00:00:08.504	-0.105	-0.105
00:00:08.506	-0.105	-0.105
00:00:08.508	-0.105	-0.110
00:00:08.510	-0.120	-0.115
00:00:08.512	-0.140	-0.125
00:00:08.514	-0.135	-0.130
00:00:08.516	-0.130	-0.130
00:00:08.518	-0.145	-0.130
00:00:08.520	-0.130	-0.130
00:00:08.522	-0.110	-0.130
00:00:08.524	-0.110	-0.125
00:00:08.526	-0.130	-0.120
00:00:08.528	-0.115	-0.115
00:00:08.530	-0.110	-0.110
00:00:08.532	-0.125	-0.110
00:00:08.534	-0.140	-0.110
00:00:08.536	-0.140	-0.110
00:00:08.538	-0.160	-0.115
00:00:08.540	-0.130	-0.120
00:00:08.542	-0.125	-0.125
00:00:08.544	-0.130	-0.130
00:00:08.546	-0.150	-0.130
00:00:08.548	-0.120	-0.135
00:00:08.550	-0.145	-0.140
00:00:08.552	-0.160	-0.140
00:00:08.554	-0.175	-0.145
00:00:08.556	-0.160	-0.145
00:00:08.558	-0.195	-0.145
00:00:08.560	-0.185	-0.140
00:00:08.562	-0.140	-0.130
00:00:08.564	-0.090	-0.115
00:00:08.566	-0.045	-0.085
00:00:08.568	0.010	-0.045
00:00:08.570	0.050	0.005
00:00:08.572	0.070	0.070
00:00:08.574	0.120	0.145
00:00:08.576	0.190	0.225
00:00:08.578	0.280	0.305
00:00:08.580	0.390	0.380
00:00:08.582	0.505	0.440
00:00:08.584	0.520	0.475
00:00:08.586	0.510	0.490
00:00:08.588	0.470	0.475
00:00:08.590	0.385	0.430
00:00:08.592	0.330	0.360
00:00:08.594	0.250	0.275
00:00:08.596	0.155	0.175
00:00:08.598	0.060	0.080
00:00:08.600	-0.060	-0.015
00:00:08.602	-0.135	-0.090
00:00:08.604	-0.205	-0.150
00:00:08.606	-0.220	-0.185
00:00:08.608	-0.205	-0.205
00:00:08.610	-0.210	-0.205
00:00:08.612	-0.195	-0.195
00:00:08.614	-0.165	-0.175
00:00:08.616	-0.145	-0.155
00:00:08.618	-0.130	-0.140
00:00:08.620	-0.130	-0.125
00:00:08.622	-0.110	-0.115
00:00:08.624	-0.090	-0.110
00:00:08.626	-0.095	-0.105
00:00:08.628	-0.105	-0.100
00:00:08.630	-0.115	-0.100
00:00:08.632	-0.115	-0.100
00:00:08.634	-0.115	-0.095
00:00:08.636	-0.115	-0.095
00:00:08.638	-0.110	-0.095
00:00:08.640	-0.110	-0.095
00:00:08.642	-0.080	-0.095
00:00:08.644	-0.120	-0.100
00:00:08.646	-0.100	-0.100
00:00:08.648	-0.080	-0.105
00:00:08.650	-0.110	-0.105
00:00:08.652	-0.145	-0.105
00:00:08.654	-0.125	-0.105
00:00:08.656	-0.130	-0.100
00:00:08.658	-0.115	-0.090
00:00:08.660	-0.110	-0.085
00:00:08.662	-0.080	-0.075
00:00:08.664	-0.065	-0.070
00:00:08.666	-0.070	-0.065
00:00:08.668	-0.080	-0.060
00:00:08.670	-0.095	-0.060
00:00:08.672	-0.100	-0.065
00:00:08.674	-0.095	-0.065
00:00:08.676	-0.115	-0.070
00:00:08.678	-0.110	-0.075
00:00:08.680	-0.085	-0.080
00:00:08.682	-0.090	-0.080
00:00:08.684	-0.065	-0.075
00:00:08.686	-0.040	-0.070
00:00:08.688	-0.065	-0.065
00:00:08.690	-0.045	-0.060
00:00:08.692	-0.080	-0.050
00:00:08.694	-0.065	-0.045
00:00:08.696	-0.100	-0.040
00:00:08.698	-0.105	-0.040
00:00:08.700	-0.095	-0.040
00:00:08.702	-0.080	-0.045
00:00:08.704	-0.070	-0.050
00:00:08.706	-0.060	-0.055
00:00:08.708	-0.080	-0.060
00:00:08.710	-0.080	-0.065
00:00:08.712	-0.075	-0.065
00:00:08.714	-0.055	-0.065
00:00:08.716	-0.095	-0.065
00:00:08.718	-0.075	-0.060
00:00:08.720	-0.055	-0.055
00:00:08.722	-0.035	-0.050
00:00:08.724	-0.030	-0.050
00:00:08.726	-0.030	-0.045
00:00:08.728	-0.035	-0.045
00:00:08.730	-0.045	-0.045
00:00:08.732	-0.040	-0.045
00:00:08.734	-0.045	-0.040
00:00:08.736	-0.045	-0.035
00:00:08.738	-0.045	-0.035
00:00:08.740	-0.035	-0.025
00:00:08.742	-0.015	-0.020
00:00:08.744	0.000	-0.015
00:00:08.746	0.005	-0.010
00:00:08.748	0.000	-0.005
00:00:08.750	-0.015	-0.005
00:00:08.752	-0.020	0.000
00:00:08.754	-0.025	0.000
00:00:08.756	-0.015	0.005
00:00:08.758	0.000	0.010
00:00:08.760	-0.010	0.015
00:00:08.762	0.020	0.020
00:00:08.764	0.030	0.025
00:00:08.766	0.050	0.030
00:00:08.768	0.055	0.035
00:00:08.770	0.045	0.040
00:00:08.772	0.040	0.040
00:00:08.774	0.030	0.045
00:00:08.776	0.030	0.045
00:00:08.778	0.035	0.055
00:00:08.780	0.055	0.060
00:00:08.782	0.065	0.070
00:00:08.784	0.085	0.085
00:00:08.786	0.130	0.100
00:00:08.788	0.100	0.110
00:00:08.790	0.075	0.120
00:00:08.792	0.090	0.130
00:00:08.794	0.090	0.135
00:00:08.796	0.095	0.135
00:00:08.798	0.095	0.135
00:00:08.800	0.110	0.130
00:00:08.802	0.120	0.130
00:00:08.804	0.130	0.130
00:00:08.806	0.150	0.130
00:00:08.808	0.135	0.135
00:00:08.810	0.100	0.140
00:00:08.812	0.100	0.145
00:00:08.814	0.115	0.150
00:00:08.816	0.095	0.150
00:00:08.818	0.115	0.145
